 -0.000531 0.000515 0.001853 -0.003024 0.003276 0.005870 -0.001800 -0.004277 0.000000 64480.000000
 -0.000533 0.000518 0.001856 -0.003023 0.003274 0.005874 -0.001798 -0.004277 0.000000 64481.000000
 -0.000534 0.000517 0.001857 -0.003024 0.003274 0.005859 -0.001796 -0.004276 0.000000 64482.000000
 -0.000532 0.000518 0.001858 -0.003024 0.003278 0.005839 -0.001795 -0.004274 0.000000 64483.000000
 -0.000534 0.000514 0.001851 -0.003025 0.003275 0.005817 -0.001799 -0.004278 0.000000 64484.000000
 -0.000536 0.000508 0.001841 -0.003030 0.003279 0.005824 -0.001801 -0.004281 0.000000 64485.000000
 -0.000539 0.000511 0.001845 -0.003030 0.003276 0.005829 -0.001799 -0.004281 0.000000 64486.000000
 -0.000538 0.000509 0.001843 -0.003033 0.003269 0.005827 -0.001803 -0.004282 0.000000 64487.000000
 -0.000536 0.000507 0.001844 -0.003033 0.003272 0.005830 -0.001801 -0.004279 0.000000 64488.000000
 -0.000534 0.000511 0.001844 -0.003029 0.003274 0.005832 -0.001799 -0.004279 0.000000 64489.000000
 -0.000534 0.000511 0.001844 -0.003027 0.003272 0.005837 -0.001800 -0.004279 0.000000 64490.000000
 -0.000534 0.000513 0.001848 -0.003027 0.003274 0.005843 -0.001798 -0.004279 0.000000 64491.000000
 -0.000535 0.000514 0.001851 -0.003026 0.003275 0.005839 -0.001798 -0.004278 0.000000 64492.000000
 -0.000535 0.000517 0.001854 -0.003027 0.003268 0.005831 -0.001799 -0.004276 0.000000 64493.000000
 -0.000534 0.000516 0.001856 -0.003027 0.003255 0.005835 -0.001798 -0.004277 0.000000 64494.000000
 -0.000535 0.000512 0.001855 -0.003026 0.003255 0.005851 -0.001797 -0.004278 0.000000 64495.000000
 -0.000534 0.000509 0.001847 -0.003029 0.003263 0.005837 -0.001799 -0.004279 0.000000 64496.000000
 -0.000534 0.000505 0.001842 -0.003033 0.003288 0.005839 -0.001804 -0.004278 0.000000 64497.000000
 -0.000536 0.000506 0.001843 -0.003031 0.003280 0.005841 -0.001801 -0.004276 0.000000 64498.000000
 -0.000534 0.000509 0.001846 -0.003028 0.003274 0.005833 -0.001798 -0.004274 0.000000 64499.000000
 -0.000533 0.000512 0.001849 -0.003027 0.003277 0.005836 -0.001797 -0.004270 0.000000 64500.000000
 -0.000532 0.000515 0.001852 -0.003025 0.003280 0.005839 -0.001796 -0.004267 0.000000 64501.000000
 -0.000535 0.000515 0.001853 -0.003027 0.003281 0.005837 -0.001797 -0.004271 0.000000 64502.000000
 -0.000536 0.000515 0.001852 -0.003028 0.003275 0.005834 -0.001799 -0.004273 0.000000 64503.000000
 -0.000534 0.000517 0.001856 -0.003027 0.003272 0.005830 -0.001795 -0.004274 0.000000 64504.000000
 -0.000533 0.000516 0.001856 -0.003024 0.003266 0.005831 -0.001795 -0.004274 0.000000 64505.000000
 -0.000533 0.000514 0.001853 -0.003025 0.003256 0.005831 -0.001796 -0.004275 0.000000 64506.000000
 -0.000533 0.000511 0.001849 -0.003027 0.003268 0.005836 -0.001800 -0.004276 0.000000 64507.000000
 -0.000533 0.000510 0.001843 -0.003031 0.003294 0.005853 -0.001803 -0.004273 0.000000 64508.000000
 -0.000535 0.000508 0.001842 -0.003030 0.003285 0.005849 -0.001801 -0.004271 0.000000 64509.000000
 -0.000534 0.000512 0.001846 -0.003029 0.003275 0.005839 -0.001799 -0.004271 0.000000 64510.000000
 -0.000535 0.000515 0.001850 -0.003025 0.003275 0.005848 -0.001795 -0.004275 0.000000 64511.000000
 -0.000534 0.000512 0.001849 -0.003024 0.003276 0.005849 -0.001797 -0.004276 0.000000 64512.000000
 -0.000535 0.000511 0.001843 -0.003025 0.003274 0.005834 -0.001798 -0.004278 0.000000 64513.000000
 -0.000535 0.000510 0.001844 -0.003028 0.003278 0.005823 -0.001797 -0.004280 0.000000 64514.000000
 -0.000535 0.000512 0.001850 -0.003028 0.003290 0.005815 -0.001800 -0.004278 0.000000 64515.000000
 -0.000536 0.000511 0.001851 -0.003025 0.003297 0.005823 -0.001802 -0.004278 0.000000 64516.000000
 -0.000535 0.000507 0.001850 -0.003024 0.003289 0.005855 -0.001799 -0.004278 0.000000 64517.000000
 -0.000536 0.000507 0.001850 -0.003025 0.003253 0.005861 -0.001796 -0.004278 0.000000 64518.000000
 -0.000534 0.000510 0.001848 -0.003027 0.003245 0.005843 -0.001798 -0.004276 0.000000 64519.000000
 -0.000535 0.000510 0.001845 -0.003025 0.003260 0.005848 -0.001797 -0.004275 0.000000 64520.000000
 -0.000534 0.000510 0.001845 -0.003025 0.003263 0.005840 -0.001792 -0.004275 0.000000 64521.000000
 -0.000532 0.000511 0.001846 -0.003028 0.003261 0.005836 -0.001799 -0.004275 0.000000 64522.000000
 -0.000533 0.000512 0.001847 -0.003028 0.003256 0.005841 -0.001801 -0.004275 0.000000 64523.000000
 -0.000532 0.000513 0.001852 -0.003028 0.003256 0.005853 -0.001801 -0.004277 0.000000 64524.000000
 -0.000530 0.000516 0.001857 -0.003027 0.003272 0.005837 -0.001798 -0.004277 0.000000 64525.000000
 -0.000531 0.000516 0.001859 -0.003026 0.003265 0.005796 -0.001795 -0.004280 0.000000 64526.000000
 -0.000533 0.000515 0.001858 -0.003027 0.003260 0.005778 -0.001799 -0.004282 0.000000 64527.000000
 -0.000534 0.000511 0.001851 -0.003025 0.003267 0.005808 -0.001795 -0.004279 0.000000 64528.000000
 -0.000535 0.000510 0.001851 -0.003019 0.003273 0.005859 -0.001786 -0.004277 0.000000 64529.000000
 -0.000538 0.000507 0.001846 -0.003023 0.003283 0.005859 -0.001792 -0.004277 0.000000 64530.000000
 -0.000535 0.000511 0.001845 -0.003022 0.003280 0.005850 -0.001797 -0.004280 0.000000 64531.000000
 -0.000536 0.000506 0.001838 -0.003025 0.003279 0.005840 -0.001797 -0.004283 0.000000 64532.000000
 -0.000536 0.000506 0.001837 -0.003028 0.003277 0.005834 -0.001797 -0.004283 0.000000 64533.000000
 -0.000534 0.000511 0.001844 -0.003025 0.003276 0.005840 -0.001795 -0.004283 0.000000 64534.000000
 -0.000533 0.000509 0.001844 -0.003024 0.003268 0.005837 -0.001796 -0.004285 0.000000 64535.000000
 -0.000534 0.000509 0.001845 -0.003024 0.003261 0.005838 -0.001799 -0.004285 0.000000 64536.000000
 -0.000535 0.000507 0.001844 -0.003026 0.003260 0.005833 -0.001798 -0.004287 0.000000 64537.000000
 -0.000535 0.000507 0.001845 -0.003025 0.003258 0.005824 -0.001798 -0.004286 0.000000 64538.000000
 -0.000534 0.000510 0.001846 -0.003026 0.003271 0.005828 -0.001799 -0.004283 0.000000 64539.000000
 -0.000533 0.000512 0.001850 -0.003022 0.003293 0.005836 -0.001798 -0.004281 0.000000 64540.000000
 -0.000534 0.000512 0.001850 -0.003018 0.003291 0.005842 -0.001795 -0.004283 0.000000 64541.000000
 -0.000533 0.000511 0.001848 -0.003019 0.003280 0.005842 -0.001794 -0.004281 0.000000 64542.000000
 -0.000535 0.000510 0.001848 -0.003023 0.003277 0.005829 -0.001796 -0.004282 0.000000 64543.000000
 -0.000533 0.000512 0.001850 -0.003023 0.003273 0.005827 -0.001798 -0.004286 0.000000 64544.000000
 -0.000533 0.000512 0.001853 -0.003022 0.003271 0.005827 -0.001801 -0.004285 0.000000 64545.000000
 -0.000532 0.000512 0.001854 -0.003024 0.003266 0.005828 -0.001798 -0.004283 0.000000 64546.000000
 -0.000534 0.000506 0.001849 -0.003027 0.003263 0.005827 -0.001801 -0.004283 0.000000 64547.000000
 -0.000533 0.000504 0.001843 -0.003027 0.003280 0.005860 -0.001801 -0.004283 0.000000 64548.000000
 -0.000532 0.000510 0.001846 -0.003023 0.003290 0.005855 -0.001794 -0.004280 0.000000 64549.000000
 -0.000532 0.000510 0.001849 -0.003022 0.003290 0.005838 -0.001792 -0.004278 0.000000 64550.000000
 -0.000531 0.000512 0.001852 -0.003017 0.003299 0.005833 -0.001791 -0.004282 0.000000 64551.000000
 -0.000532 0.000514 0.001854 -0.003017 0.003294 0.005839 -0.001793 -0.004287 0.000000 64552.000000
 -0.000534 0.000513 0.001855 -0.003020 0.003286 0.005830 -0.001795 -0.004291 0.000000 64553.000000
 -0.000534 0.000515 0.001856 -0.003018 0.003257 0.005824 -0.001795 -0.004290 0.000000 64554.000000
 -0.000532 0.000511 0.001854 -0.003021 0.003249 0.005829 -0.001799 -0.004289 0.000000 64555.000000
 -0.000533 0.000510 0.001850 -0.003024 0.003242 0.005818 -0.001806 -0.004288 0.000000 64556.000000
 -0.000535 0.000510 0.001846 -0.003026 0.003261 0.005816 -0.001807 -0.004288 0.000000 64557.000000
 -0.000534 0.000512 0.001850 -0.003022 0.003281 0.005820 -0.001800 -0.004287 0.000000 64558.000000
 -0.000533 0.000511 0.001854 -0.003020 0.003275 0.005858 -0.001794 -0.004282 0.000000 64559.000000
 -0.000533 0.000510 0.001847 -0.003017 0.003261 0.005862 -0.001789 -0.004278 0.000000 64560.000000
 -0.000534 0.000505 0.001837 -0.003020 0.003261 0.005839 -0.001792 -0.004279 0.000000 64561.000000
 -0.000533 0.000505 0.001839 -0.003022 0.003265 0.005835 -0.001794 -0.004281 0.000000 64562.000000
 -0.000533 0.000508 0.001841 -0.003024 0.003265 0.005836 -0.001795 -0.004282 0.000000 64563.000000
 -0.000532 0.000510 0.001844 -0.003022 0.003267 0.005834 -0.001797 -0.004284 0.000000 64564.000000
 -0.000531 0.000512 0.001847 -0.003019 0.003271 0.005841 -0.001794 -0.004282 0.000000 64565.000000
 -0.000533 0.000510 0.001846 -0.003019 0.003269 0.005860 -0.001791 -0.004281 0.000000 64566.000000
 -0.000534 0.000508 0.001843 -0.003021 0.003260 0.005855 -0.001796 -0.004278 0.000000 64567.000000
 -0.000532 0.000509 0.001845 -0.003020 0.003260 0.005835 -0.001797 -0.004268 0.000000 64568.000000
 -0.000531 0.000511 0.001847 -0.003020 0.003268 0.005818 -0.001794 -0.004260 0.000000 64569.000000
 -0.000529 0.000512 0.001848 -0.003016 0.003266 0.005813 -0.001792 -0.004253 0.000000 64570.000000
 -0.000531 0.000511 0.001847 -0.003017 0.003260 0.005818 -0.001791 -0.004244 0.000000 64571.000000
 -0.000532 0.000511 0.001849 -0.003018 0.003259 0.005824 -0.001790 -0.004239 0.000000 64572.000000
 -0.000530 0.000512 0.001851 -0.003016 0.003264 0.005800 -0.001791 -0.004239 0.000000 64573.000000
 -0.000534 0.000506 0.001843 -0.003020 0.003266 0.005799 -0.001795 -0.004241 0.000000 64574.000000
 -0.000533 0.000509 0.001844 -0.003019 0.003271 0.005858 -0.001790 -0.004241 0.000000 64575.000000
 -0.000533 0.000509 0.001845 -0.003020 0.003252 0.005839 -0.001795 -0.004246 0.000000 64576.000000
 -0.000535 0.000503 0.001841 -0.003025 0.003231 0.005825 -0.001802 -0.004252 0.000000 64577.000000
 -0.000536 0.000502 0.001835 -0.003025 0.003254 0.005830 -0.001807 -0.004252 0.000000 64578.000000
 -0.000537 0.000502 0.001834 -0.003023 0.003292 0.005837 -0.001801 -0.004254 0.000000 64579.000000
 -0.000535 0.000507 0.001837 -0.003020 0.003291 0.005836 -0.001796 -0.004256 0.000000 64580.000000
 -0.000537 0.000508 0.001837 -0.003019 0.003277 0.005836 -0.001792 -0.004257 0.000000 64581.000000
 -0.000537 0.000507 0.001839 -0.003021 0.003275 0.005837 -0.001792 -0.004258 0.000000 64582.000000
 -0.000539 0.000505 0.001841 -0.003017 0.003273 0.005834 -0.001794 -0.004264 0.000000 64583.000000
 -0.000543 0.000506 0.001838 -0.003021 0.003271 0.005839 -0.001798 -0.004275 0.000000 64584.000000
 -0.000541 0.000507 0.001839 -0.003024 0.003268 0.005840 -0.001797 -0.004284 0.000000 64585.000000
 -0.000540 0.000508 0.001841 -0.003023 0.003265 0.005838 -0.001795 -0.004302 0.000000 64586.000000
 -0.000539 0.000506 0.001840 -0.003025 0.003261 0.005816 -0.001800 -0.004323 0.000000 64587.000000
 -0.000540 0.000505 0.001840 -0.003027 0.003258 0.005815 -0.001803 -0.004337 0.000000 64588.000000
 -0.000539 0.000509 0.001844 -0.003023 0.003261 0.005824 -0.001800 -0.004341 0.000000 64589.000000
 -0.000537 0.000511 0.001846 -0.003020 0.003264 0.005839 -0.001794 -0.004340 0.000000 64590.000000
 -0.000534 0.000512 0.001849 -0.003018 0.003263 0.005833 -0.001793 -0.004342 0.000000 64591.000000
 -0.000533 0.000512 0.001849 -0.003019 0.003265 0.005826 -0.001794 -0.004345 0.000000 64592.000000
 -0.000534 0.000510 0.001845 -0.003019 0.003266 0.005837 -0.001794 -0.004344 0.000000 64593.000000
 -0.000535 0.000510 0.001847 -0.003019 0.003265 0.005835 -0.001796 -0.004339 0.000000 64594.000000
 -0.000534 0.000510 0.001849 -0.003018 0.003264 0.005849 -0.001796 -0.004332 0.000000 64595.000000
 -0.000533 0.000510 0.001850 -0.003018 0.003264 0.005839 -0.001795 -0.004329 0.000000 64596.000000
 -0.000530 0.000511 0.001851 -0.003018 0.003268 0.005825 -0.001797 -0.004323 0.000000 64597.000000
 -0.000528 0.000513 0.001852 -0.003019 0.003280 0.005820 -0.001797 -0.004319 0.000000 64598.000000
 -0.000527 0.000514 0.001858 -0.003011 0.003287 0.005813 -0.001786 -0.004319 0.000000 64599.000000
 -0.000526 0.000516 0.001858 -0.003011 0.003274 0.005811 -0.001785 -0.004319 0.000000 64600.000000
 -0.000529 0.000516 0.001853 -0.003011 0.003246 0.005852 -0.001783 -0.004315 0.000000 64601.000000
 -0.000532 0.000508 0.001843 -0.003016 0.003253 0.005853 -0.001789 -0.004311 0.000000 64602.000000
 -0.000531 0.000506 0.001842 -0.003019 0.003267 0.005839 -0.001794 -0.004306 0.000000 64603.000000
 -0.000531 0.000509 0.001847 -0.003019 0.003269 0.005826 -0.001793 -0.004297 0.000000 64604.000000
 -0.000530 0.000506 0.001845 -0.003018 0.003259 0.005821 -0.001800 -0.004292 0.000000 64605.000000
 -0.000530 0.000505 0.001841 -0.003019 0.003250 0.005823 -0.001799 -0.004286 0.000000 64606.000000
 -0.000532 0.000506 0.001842 -0.003018 0.003247 0.005825 -0.001797 -0.004282 0.000000 64607.000000
 -0.000530 0.000506 0.001845 -0.003020 0.003238 0.005826 -0.001800 -0.004278 0.000000 64608.000000
 -0.000528 0.000512 0.001854 -0.003017 0.003226 0.005820 -0.001797 -0.004275 0.000000 64609.000000
 -0.000525 0.000516 0.001857 -0.003010 0.003248 0.005818 -0.001792 -0.004274 0.000000 64610.000000
 -0.000528 0.000512 0.001850 -0.003008 0.003281 0.005848 -0.001788 -0.004274 0.000000 64611.000000
 -0.000531 0.000508 0.001845 -0.003013 0.003270 0.005842 -0.001794 -0.004278 0.000000 64612.000000
 -0.000531 0.000506 0.001840 -0.003018 0.003258 0.005827 -0.001796 -0.004279 0.000000 64613.000000
 -0.000531 0.000505 0.001839 -0.003017 0.003260 0.005824 -0.001794 -0.004279 0.000000 64614.000000
 -0.000533 0.000504 0.001842 -0.003016 0.003260 0.005827 -0.001791 -0.004282 0.000000 64615.000000
 -0.000531 0.000506 0.001847 -0.003015 0.003262 0.005825 -0.001792 -0.004282 0.000000 64616.000000
 -0.000534 0.000504 0.001844 -0.003016 0.003257 0.005824 -0.001795 -0.004288 0.000000 64617.000000
 -0.000535 0.000503 0.001842 -0.003016 0.003250 0.005817 -0.001797 -0.004287 0.000000 64618.000000
 -0.000533 0.000506 0.001847 -0.003013 0.003257 0.005820 -0.001791 -0.004287 0.000000 64619.000000
 -0.000533 0.000508 0.001849 -0.003010 0.003255 0.005834 -0.001791 -0.004286 0.000000 64620.000000
 -0.000533 0.000507 0.001848 -0.003010 0.003238 0.005837 -0.001790 -0.004286 0.000000 64621.000000
 -0.000530 0.000509 0.001847 -0.003012 0.003242 0.005823 -0.001791 -0.004286 0.000000 64622.000000
 -0.000532 0.000508 0.001845 -0.003017 0.003277 0.005812 -0.001800 -0.004288 0.000000 64623.000000
 -0.000530 0.000505 0.001844 -0.003016 0.003273 0.005813 -0.001797 -0.004290 0.000000 64624.000000
 -0.000531 0.000506 0.001843 -0.003014 0.003263 0.005836 -0.001795 -0.004291 0.000000 64625.000000
 -0.000532 0.000505 0.001845 -0.003016 0.003260 0.005833 -0.001799 -0.004289 0.000000 64626.000000
 -0.000532 0.000504 0.001847 -0.003018 0.003253 0.005843 -0.001797 -0.004289 0.000000 64627.000000
 -0.000533 0.000506 0.001845 -0.003019 0.003250 0.005832 -0.001797 -0.004288 0.000000 64628.000000
 -0.000534 0.000505 0.001842 -0.003018 0.003260 0.005811 -0.001798 -0.004289 0.000000 64629.000000
 -0.000531 0.000507 0.001845 -0.003015 0.003266 0.005802 -0.001792 -0.004289 0.000000 64630.000000
 -0.000533 0.000509 0.001845 -0.003010 0.003268 0.005821 -0.001788 -0.004289 0.000000 64631.000000
 -0.000533 0.000509 0.001846 -0.003014 0.003266 0.005822 -0.001791 -0.004288 0.000000 64632.000000
 -0.000532 0.000507 0.001847 -0.003015 0.003265 0.005822 -0.001794 -0.004289 0.000000 64633.000000
 -0.000532 0.000508 0.001846 -0.003013 0.003264 0.005843 -0.001793 -0.004290 0.000000 64634.000000
 -0.000531 0.000508 0.001848 -0.003012 0.003261 0.005835 -0.001791 -0.004288 0.000000 64635.000000
 -0.000532 0.000509 0.001850 -0.003013 0.003256 0.005828 -0.001795 -0.004291 0.000000 64636.000000
 -0.000535 0.000505 0.001847 -0.003017 0.003244 0.005813 -0.001798 -0.004294 0.000000 64637.000000
 -0.000534 0.000503 0.001843 -0.003020 0.003247 0.005810 -0.001804 -0.004293 0.000000 64638.000000
 -0.000531 0.000504 0.001847 -0.003017 0.003271 0.005801 -0.001801 -0.004290 0.000000 64639.000000
 -0.000532 0.000510 0.001851 -0.003013 0.003283 0.005802 -0.001797 -0.004289 0.000000 64640.000000
 -0.000531 0.000511 0.001851 -0.003012 0.003285 0.005828 -0.001790 -0.004288 0.000000 64641.000000
 -0.000530 0.000511 0.001850 -0.003008 0.003273 0.005847 -0.001784 -0.004286 0.000000 64642.000000
 -0.000531 0.000508 0.001847 -0.003010 0.003264 0.005847 -0.001787 -0.004289 0.000000 64643.000000
 -0.000533 0.000507 0.001847 -0.003014 0.003253 0.005822 -0.001792 -0.004290 0.000000 64644.000000
 -0.000530 0.000507 0.001847 -0.003012 0.003251 0.005822 -0.001795 -0.004288 0.000000 64645.000000
 -0.000535 0.000504 0.001844 -0.003011 0.003241 0.005827 -0.001796 -0.004290 0.000000 64646.000000
 -0.000535 0.000504 0.001844 -0.003019 0.003239 0.005819 -0.001801 -0.004291 0.000000 64647.000000
 -0.000531 0.000506 0.001849 -0.003014 0.003265 0.005824 -0.001795 -0.004291 0.000000 64648.000000
 -0.000531 0.000510 0.001853 -0.003011 0.003272 0.005841 -0.001793 -0.004289 0.000000 64649.000000
 -0.000531 0.000511 0.001852 -0.003011 0.003267 0.005833 -0.001794 -0.004287 0.000000 64650.000000
 -0.000533 0.000510 0.001851 -0.003009 0.003266 0.005820 -0.001789 -0.004286 0.000000 64651.000000
 -0.000534 0.000507 0.001845 -0.003011 0.003270 0.005814 -0.001793 -0.004286 0.000000 64652.000000
 -0.000535 0.000504 0.001840 -0.003015 0.003262 0.005808 -0.001799 -0.004289 0.000000 64653.000000
 -0.000534 0.000505 0.001846 -0.003013 0.003257 0.005817 -0.001797 -0.004289 0.000000 64654.000000
 -0.000533 0.000508 0.001849 -0.003012 0.003264 0.005826 -0.001794 -0.004290 0.000000 64655.000000
 -0.000533 0.000509 0.001849 -0.003014 0.003279 0.005810 -0.001793 -0.004289 0.000000 64656.000000
 -0.000535 0.000504 0.001850 -0.003016 0.003278 0.005803 -0.001794 -0.004292 0.000000 64657.000000
 -0.000534 0.000503 0.001851 -0.003013 0.003261 0.005803 -0.001792 -0.004291 0.000000 64658.000000
 -0.000534 0.000503 0.001842 -0.003012 0.003233 0.005809 -0.001793 -0.004292 0.000000 64659.000000
 -0.000535 0.000500 0.001836 -0.003011 0.003245 0.005818 -0.001795 -0.004291 0.000000 64660.000000
 -0.000534 0.000504 0.001840 -0.003009 0.003250 0.005829 -0.001793 -0.004290 0.000000 64661.000000
 -0.000533 0.000505 0.001842 -0.003009 0.003251 0.005833 -0.001792 -0.004290 0.000000 64662.000000
 -0.000533 0.000505 0.001845 -0.003008 0.003254 0.005821 -0.001792 -0.004290 0.000000 64663.000000
 -0.000533 0.000505 0.001845 -0.003009 0.003256 0.005816 -0.001793 -0.004292 0.000000 64664.000000
 -0.000535 0.000508 0.001848 -0.003009 0.003258 0.005821 -0.001795 -0.004291 0.000000 64665.000000
 -0.000533 0.000509 0.001848 -0.003010 0.003251 0.005825 -0.001794 -0.004290 0.000000 64666.000000
 -0.000534 0.000505 0.001844 -0.003013 0.003226 0.005819 -0.001798 -0.004292 0.000000 64667.000000
 -0.000535 0.000504 0.001842 -0.003011 0.003223 0.005807 -0.001798 -0.004290 0.000000 64668.000000
 -0.000535 0.000505 0.001843 -0.003010 0.003250 0.005811 -0.001796 -0.004289 0.000000 64669.000000
 -0.000533 0.000506 0.001841 -0.003009 0.003249 0.005830 -0.001788 -0.004289 0.000000 64670.000000
 -0.000532 0.000504 0.001840 -0.003011 0.003235 0.005827 -0.001790 -0.004289 0.000000 64671.000000
 -0.000531 0.000507 0.001842 -0.003010 0.003245 0.005819 -0.001792 -0.004287 0.000000 64672.000000
 -0.000530 0.000509 0.001845 -0.003008 0.003280 0.005823 -0.001791 -0.004285 0.000000 64673.000000
 -0.000532 0.000510 0.001849 -0.003007 0.003268 0.005834 -0.001792 -0.004288 0.000000 64674.000000
 -0.000535 0.000512 0.001853 -0.003007 0.003258 0.005825 -0.001794 -0.004291 0.000000 64675.000000
 -0.000535 0.000512 0.001853 -0.003006 0.003258 0.005811 -0.001791 -0.004291 0.000000 64676.000000
 -0.000535 0.000503 0.001841 -0.003011 0.003259 0.005816 -0.001800 -0.004292 0.000000 64677.000000
 -0.000534 0.000503 0.001839 -0.003015 0.003263 0.005818 -0.001798 -0.004292 0.000000 64678.000000
 -0.000533 0.000507 0.001844 -0.003011 0.003260 0.005799 -0.001791 -0.004289 0.000000 64679.000000
 -0.000534 0.000505 0.001842 -0.003011 0.003253 0.005802 -0.001796 -0.004290 0.000000 64680.000000
 -0.000532 0.000508 0.001846 -0.003010 0.003255 0.005823 -0.001793 -0.004290 0.000000 64681.000000
 -0.000534 0.000508 0.001848 -0.003006 0.003260 0.005826 -0.001788 -0.004291 0.000000 64682.000000
 -0.000533 0.000507 0.001845 -0.003008 0.003266 0.005811 -0.001792 -0.004292 0.000000 64683.000000
 -0.000532 0.000506 0.001843 -0.003009 0.003263 0.005819 -0.001794 -0.004289 0.000000 64684.000000
 -0.000534 0.000506 0.001842 -0.003007 0.003253 0.005827 -0.001792 -0.004289 0.000000 64685.000000
 -0.000532 0.000506 0.001844 -0.003008 0.003252 0.005826 -0.001788 -0.004291 0.000000 64686.000000
 -0.000534 0.000505 0.001842 -0.003012 0.003256 0.005811 -0.001796 -0.004295 0.000000 64687.000000
 -0.000532 0.000507 0.001848 -0.003010 0.003261 0.005818 -0.001795 -0.004294 0.000000 64688.000000
 -0.000530 0.000510 0.001852 -0.003006 0.003270 0.005860 -0.001786 -0.004290 0.000000 64689.000000
 -0.000533 0.000509 0.001851 -0.003007 0.003257 0.005832 -0.001791 -0.004290 0.000000 64690.000000
 -0.000534 0.000510 0.001851 -0.003005 0.003252 0.005812 -0.001790 -0.004293 0.000000 64691.000000
 -0.000533 0.000509 0.001849 -0.003003 0.003253 0.005782 -0.001785 -0.004292 0.000000 64692.000000
 -0.000533 0.000506 0.001841 -0.003006 0.003246 0.005793 -0.001790 -0.004291 0.000000 64693.000000
 -0.000533 0.000504 0.001839 -0.003009 0.003240 0.005835 -0.001793 -0.004292 0.000000 64694.000000
 -0.000533 0.000504 0.001838 -0.003011 0.003251 0.005823 -0.001796 -0.004293 0.000000 64695.000000
 -0.000532 0.000505 0.001837 -0.003009 0.003266 0.005816 -0.001795 -0.004293 0.000000 64696.000000
 -0.000537 0.000505 0.001838 -0.003012 0.003257 0.005812 -0.001797 -0.004296 0.000000 64697.000000
 -0.000535 0.000504 0.001840 -0.003013 0.003254 0.005807 -0.001798 -0.004297 0.000000 64698.000000
 -0.000534 0.000506 0.001845 -0.003009 0.003258 0.005818 -0.001793 -0.004294 0.000000 64699.000000
 -0.000534 0.000510 0.001848 -0.003006 0.003261 0.005824 -0.001791 -0.004294 0.000000 64700.000000
 -0.000533 0.000512 0.001850 -0.003005 0.003269 0.005821 -0.001790 -0.004294 0.000000 64701.000000
 -0.000532 0.000510 0.001846 -0.003005 0.003274 0.005825 -0.001792 -0.004294 0.000000 64702.000000
 -0.000533 0.000508 0.001843 -0.003003 0.003273 0.005825 -0.001791 -0.004294 0.000000 64703.000000
 -0.000535 0.000507 0.001842 -0.003006 0.003256 0.005815 -0.001788 -0.004294 0.000000 64704.000000
 -0.000535 0.000509 0.001842 -0.003010 0.003237 0.005806 -0.001795 -0.004292 0.000000 64705.000000
 -0.000535 0.000507 0.001840 -0.003012 0.003241 0.005810 -0.001793 -0.004294 0.000000 64706.000000
 -0.000533 0.000505 0.001840 -0.003013 0.003242 0.005813 -0.001794 -0.004295 0.000000 64707.000000
 -0.000534 0.000505 0.001843 -0.003010 0.003245 0.005816 -0.001793 -0.004296 0.000000 64708.000000
 -0.000533 0.000508 0.001846 -0.003009 0.003243 0.005812 -0.001792 -0.004294 0.000000 64709.000000
 -0.000531 0.000512 0.001850 -0.003005 0.003231 0.005814 -0.001791 -0.004294 0.000000 64710.000000
 -0.000532 0.000511 0.001847 -0.003001 0.003253 0.005821 -0.001790 -0.004293 0.000000 64711.000000
 -0.000534 0.000510 0.001843 -0.003003 0.003283 0.005821 -0.001789 -0.004293 0.000000 64712.000000
 -0.000534 0.000510 0.001844 -0.003003 0.003282 0.005817 -0.001793 -0.004292 0.000000 64713.000000
 -0.000535 0.000508 0.001843 -0.003006 0.003267 0.005819 -0.001794 -0.004290 0.000000 64714.000000
 -0.000536 0.000503 0.001838 -0.003009 0.003248 0.005821 -0.001793 -0.004291 0.000000 64715.000000
 -0.000535 0.000502 0.001834 -0.003009 0.003254 0.005820 -0.001794 -0.004294 0.000000 64716.000000
 -0.000534 0.000503 0.001835 -0.003011 0.003254 0.005799 -0.001796 -0.004296 0.000000 64717.000000
 -0.000534 0.000505 0.001838 -0.003008 0.003264 0.005804 -0.001795 -0.004293 0.000000 64718.000000
 -0.000533 0.000509 0.001845 -0.003004 0.003272 0.005815 -0.001792 -0.004289 0.000000 64719.000000
 -0.000533 0.000511 0.001845 -0.003003 0.003264 0.005806 -0.001792 -0.004288 0.000000 64720.000000
 -0.000537 0.000508 0.001845 -0.003004 0.003257 0.005799 -0.001794 -0.004288 0.000000 64721.000000
 -0.000534 0.000509 0.001844 -0.003001 0.003259 0.005821 -0.001788 -0.004289 0.000000 64722.000000
 -0.000531 0.000507 0.001843 -0.003002 0.003261 0.005830 -0.001784 -0.004289 0.000000 64723.000000
 -0.000533 0.000508 0.001842 -0.003007 0.003259 0.005807 -0.001789 -0.004291 0.000000 64724.000000
 -0.000532 0.000509 0.001843 -0.003004 0.003250 0.005823 -0.001790 -0.004291 0.000000 64725.000000
 -0.000531 0.000509 0.001844 -0.003001 0.003225 0.005830 -0.001790 -0.004292 0.000000 64726.000000
 -0.000530 0.000509 0.001845 -0.003005 0.003217 0.005821 -0.001795 -0.004295 0.000000 64727.000000
 -0.000528 0.000512 0.001850 -0.003003 0.003235 0.005803 -0.001795 -0.004296 0.000000 64728.000000
 -0.000530 0.000511 0.001846 -0.003001 0.003287 0.005825 -0.001789 -0.004290 0.000000 64729.000000
 -0.000534 0.000506 0.001840 -0.003000 0.003293 0.005829 -0.001784 -0.004290 0.000000 64730.000000
 -0.000532 0.000506 0.001844 -0.003001 0.003273 0.005810 -0.001789 -0.004291 0.000000 64731.000000
 -0.000531 0.000508 0.001849 -0.002998 0.003245 0.005804 -0.001788 -0.004290 0.000000 64732.000000
 -0.000531 0.000511 0.001849 -0.002997 0.003241 0.005829 -0.001787 -0.004292 0.000000 64733.000000
 -0.000532 0.000512 0.001847 -0.003001 0.003261 0.005835 -0.001790 -0.004296 0.000000 64734.000000
 -0.000531 0.000507 0.001840 -0.003000 0.003261 0.005853 -0.001789 -0.004295 0.000000 64735.000000
 -0.000535 0.000503 0.001833 -0.003005 0.003247 0.005837 -0.001793 -0.004293 0.000000 64736.000000
 -0.000537 0.000501 0.001830 -0.003010 0.003242 0.005806 -0.001800 -0.004296 0.000000 64737.000000
 -0.000533 0.000502 0.001834 -0.003006 0.003243 0.005791 -0.001798 -0.004295 0.000000 64738.000000
 -0.000531 0.000504 0.001841 -0.003006 0.003248 0.005802 -0.001794 -0.004296 0.000000 64739.000000
 -0.000529 0.000508 0.001843 -0.003004 0.003252 0.005814 -0.001790 -0.004293 0.000000 64740.000000
 -0.000528 0.000510 0.001845 -0.003001 0.003257 0.005816 -0.001790 -0.004293 0.000000 64741.000000
 -0.000529 0.000509 0.001848 -0.003000 0.003256 0.005820 -0.001790 -0.004293 0.000000 64742.000000
 -0.000531 0.000507 0.001849 -0.003001 0.003246 0.005822 -0.001793 -0.004295 0.000000 64743.000000
 -0.000531 0.000508 0.001849 -0.003003 0.003236 0.005815 -0.001796 -0.004297 0.000000 64744.000000
 -0.000533 0.000511 0.001852 -0.003003 0.003227 0.005792 -0.001792 -0.004297 0.000000 64745.000000
 -0.000533 0.000511 0.001851 -0.003003 0.003225 0.005790 -0.001793 -0.004296 0.000000 64746.000000
 -0.000534 0.000504 0.001837 -0.003007 0.003254 0.005794 -0.001795 -0.004300 0.000000 64747.000000
 -0.000533 0.000502 0.001832 -0.003005 0.003262 0.005792 -0.001792 -0.004298 0.000000 64748.000000
 -0.000531 0.000506 0.001839 -0.003002 0.003258 0.005802 -0.001791 -0.004295 0.000000 64749.000000
 -0.000530 0.000507 0.001842 -0.003001 0.003257 0.005824 -0.001790 -0.004295 0.000000 64750.000000
 -0.000529 0.000508 0.001842 -0.003003 0.003256 0.005816 -0.001793 -0.004296 0.000000 64751.000000
 -0.000529 0.000509 0.001843 -0.003002 0.003257 0.005816 -0.001790 -0.004296 0.000000 64752.000000
 -0.000531 0.000508 0.001843 -0.003001 0.003251 0.005813 -0.001789 -0.004296 0.000000 64753.000000
 -0.000530 0.000507 0.001845 -0.003000 0.003233 0.005808 -0.001794 -0.004298 0.000000 64754.000000
 -0.000530 0.000507 0.001846 -0.002999 0.003229 0.005809 -0.001793 -0.004297 0.000000 64755.000000
 -0.000529 0.000511 0.001850 -0.003001 0.003259 0.005826 -0.001794 -0.004299 0.000000 64756.000000
 -0.000530 0.000510 0.001849 -0.003001 0.003282 0.005821 -0.001791 -0.004302 0.000000 64757.000000
 -0.000532 0.000509 0.001850 -0.003003 0.003279 0.005793 -0.001793 -0.004298 0.000000 64758.000000
 -0.000529 0.000509 0.001848 -0.003001 0.003261 0.005798 -0.001791 -0.004295 0.000000 64759.000000
 -0.000529 0.000510 0.001845 -0.002998 0.003262 0.005808 -0.001787 -0.004296 0.000000 64760.000000
 -0.000530 0.000508 0.001843 -0.002997 0.003265 0.005837 -0.001788 -0.004296 0.000000 64761.000000
 -0.000527 0.000511 0.001847 -0.002995 0.003260 0.005820 -0.001786 -0.004295 0.000000 64762.000000
 -0.000529 0.000509 0.001846 -0.002999 0.003244 0.005804 -0.001791 -0.004295 0.000000 64763.000000
 -0.000532 0.000506 0.001846 -0.003002 0.003245 0.005813 -0.001791 -0.004296 0.000000 64764.000000
 -0.000530 0.000508 0.001847 -0.003003 0.003249 0.005818 -0.001792 -0.004297 0.000000 64765.000000
 -0.000531 0.000507 0.001844 -0.003002 0.003248 0.005811 -0.001790 -0.004299 0.000000 64766.000000
 -0.000531 0.000503 0.001836 -0.003000 0.003240 0.005797 -0.001790 -0.004301 0.000000 64767.000000
 -0.000531 0.000503 0.001835 -0.003006 0.003235 0.005809 -0.001794 -0.004300 0.000000 64768.000000
 -0.000529 0.000506 0.001837 -0.003005 0.003250 0.005810 -0.001791 -0.004296 0.000000 64769.000000
 -0.000528 0.000507 0.001843 -0.002999 0.003263 0.005801 -0.001788 -0.004298 0.000000 64770.000000
 -0.000528 0.000509 0.001846 -0.002998 0.003261 0.005805 -0.001789 -0.004297 0.000000 64771.000000
 -0.000531 0.000509 0.001844 -0.003000 0.003258 0.005806 -0.001789 -0.004294 0.000000 64772.000000
 -0.000532 0.000509 0.001843 -0.003000 0.003246 0.005806 -0.001790 -0.004296 0.000000 64773.000000
 -0.000531 0.000507 0.001840 -0.003000 0.003246 0.005802 -0.001791 -0.004296 0.000000 64774.000000
 -0.000532 0.000507 0.001843 -0.003003 0.003246 0.005798 -0.001792 -0.004298 0.000000 64775.000000
 -0.000531 0.000507 0.001844 -0.003004 0.003243 0.005802 -0.001793 -0.004300 0.000000 64776.000000
 -0.000532 0.000504 0.001840 -0.003004 0.003236 0.005802 -0.001794 -0.004301 0.000000 64777.000000
 -0.000531 0.000504 0.001844 -0.003002 0.003222 0.005790 -0.001794 -0.004300 0.000000 64778.000000
 -0.000529 0.000509 0.001848 -0.003001 0.003218 0.005779 -0.001795 -0.004296 0.000000 64779.000000
 -0.000528 0.000513 0.001854 -0.002998 0.003243 0.005791 -0.001791 -0.004294 0.000000 64780.000000
 -0.000530 0.000510 0.001849 -0.002994 0.003287 0.005832 -0.001783 -0.004295 0.000000 64781.000000
 -0.000530 0.000506 0.001841 -0.002996 0.003271 0.005840 -0.001782 -0.004296 0.000000 64782.000000
 -0.000534 0.000503 0.001836 -0.003001 0.003254 0.005806 -0.001792 -0.004299 0.000000 64783.000000
 -0.000530 0.000505 0.001836 -0.003000 0.003249 0.005816 -0.001789 -0.004299 0.000000 64784.000000
 -0.000529 0.000505 0.001839 -0.003001 0.003247 0.005814 -0.001794 -0.004298 0.000000 64785.000000
 -0.000532 0.000503 0.001836 -0.003002 0.003248 0.005809 -0.001795 -0.004298 0.000000 64786.000000
 -0.000533 0.000504 0.001835 -0.003002 0.003247 0.005811 -0.001795 -0.004298 0.000000 64787.000000
 -0.000534 0.000504 0.001837 -0.003003 0.003245 0.005811 -0.001795 -0.004299 0.000000 64788.000000
 -0.000530 0.000508 0.001842 -0.002998 0.003251 0.005826 -0.001793 -0.004297 0.000000 64789.000000
 -0.000529 0.000511 0.001849 -0.002994 0.003251 0.005840 -0.001792 -0.004297 0.000000 64790.000000
 -0.000529 0.000514 0.001855 -0.002998 0.003218 0.005808 -0.001794 -0.004297 0.000000 64791.000000
 -0.000530 0.000514 0.001856 -0.003002 0.003204 0.005761 -0.001802 -0.004300 0.000000 64792.000000
 -0.000532 0.000510 0.001848 -0.002996 0.003247 0.005775 -0.001786 -0.004299 0.000000 64793.000000
 -0.000533 0.000502 0.001836 -0.002992 0.003275 0.005848 -0.001775 -0.004298 0.000000 64794.000000
 -0.000533 0.000501 0.001833 -0.002999 0.003265 0.005822 -0.001784 -0.004300 0.000000 64795.000000
 -0.000534 0.000503 0.001833 -0.003001 0.003255 0.005795 -0.001791 -0.004300 0.000000 64796.000000
 -0.000534 0.000501 0.001833 -0.003002 0.003252 0.005796 -0.001794 -0.004301 0.000000 64797.000000
 -0.000534 0.000504 0.001837 -0.003001 0.003249 0.005798 -0.001793 -0.004301 0.000000 64798.000000
 -0.000533 0.000506 0.001840 -0.002998 0.003246 0.005799 -0.001789 -0.004299 0.000000 64799.000000
 -0.000531 0.000507 0.001844 -0.002995 0.003245 0.005801 -0.001788 -0.004299 0.000000 64800.000000
 -0.000530 0.000508 0.001844 -0.002995 0.003252 0.005806 -0.001787 -0.004298 0.000000 64801.000000
 -0.000528 0.000510 0.001844 -0.002996 0.003255 0.005822 -0.001787 -0.004297 0.000000 64802.000000
 -0.000532 0.000510 0.001843 -0.002995 0.003252 0.005822 -0.001785 -0.004299 0.000000 64803.000000
 -0.000532 0.000508 0.001841 -0.002999 0.003250 0.005804 -0.001791 -0.004302 0.000000 64804.000000
 -0.000531 0.000508 0.001842 -0.002999 0.003248 0.005795 -0.001796 -0.004300 0.000000 64805.000000
 -0.000531 0.000510 0.001844 -0.003000 0.003248 0.005797 -0.001797 -0.004301 0.000000 64806.000000
 -0.000533 0.000507 0.001844 -0.003001 0.003250 0.005792 -0.001798 -0.004301 0.000000 64807.000000
 -0.000530 0.000509 0.001845 -0.002998 0.003259 0.005795 -0.001790 -0.004299 0.000000 64808.000000
 -0.000529 0.000511 0.001847 -0.002995 0.003267 0.005802 -0.001786 -0.004300 0.000000 64809.000000
 -0.000528 0.000515 0.001853 -0.002996 0.003253 0.005807 -0.001793 -0.004297 0.000000 64810.000000
 -0.000528 0.000514 0.001853 -0.002991 0.003253 0.005805 -0.001791 -0.004300 0.000000 64811.000000
 -0.000529 0.000510 0.001849 -0.002991 0.003244 0.005810 -0.001789 -0.004300 0.000000 64812.000000
 -0.000531 0.000509 0.001846 -0.002994 0.003236 0.005808 -0.001790 -0.004302 0.000000 64813.000000
 -0.000531 0.000506 0.001839 -0.002998 0.003233 0.005799 -0.001792 -0.004302 0.000000 64814.000000
 -0.000530 0.000504 0.001837 -0.002997 0.003240 0.005799 -0.001791 -0.004301 0.000000 64815.000000
 -0.000531 0.000506 0.001841 -0.002996 0.003251 0.005793 -0.001793 -0.004300 0.000000 64816.000000
 -0.000532 0.000506 0.001841 -0.002997 0.003251 0.005793 -0.001792 -0.004299 0.000000 64817.000000
 -0.000530 0.000506 0.001844 -0.002995 0.003255 0.005790 -0.001792 -0.004298 0.000000 64818.000000
 -0.000530 0.000509 0.001845 -0.002993 0.003261 0.005797 -0.001792 -0.004301 0.000000 64819.000000
 -0.000529 0.000511 0.001847 -0.002989 0.003252 0.005806 -0.001786 -0.004300 0.000000 64820.000000
 -0.000528 0.000513 0.001850 -0.002989 0.003252 0.005806 -0.001787 -0.004299 0.000000 64821.000000
 -0.000529 0.000510 0.001848 -0.002991 0.003236 0.005789 -0.001788 -0.004302 0.000000 64822.000000
 -0.000531 0.000508 0.001846 -0.002991 0.003227 0.005779 -0.001789 -0.004304 0.000000 64823.000000
 -0.000531 0.000504 0.001838 -0.002995 0.003234 0.005793 -0.001793 -0.004304 0.000000 64824.000000
 -0.000530 0.000503 0.001838 -0.002994 0.003225 0.005806 -0.001789 -0.004302 0.000000 64825.000000
 -0.000531 0.000503 0.001836 -0.002994 0.003206 0.005797 -0.001788 -0.004302 0.000000 64826.000000
 -0.000533 0.000500 0.001835 -0.002997 0.003212 0.005804 -0.001791 -0.004303 0.000000 64827.000000
 -0.000532 0.000499 0.001832 -0.002997 0.003253 0.005800 -0.001791 -0.004304 0.000000 64828.000000
 -0.000532 0.000502 0.001834 -0.002994 0.003257 0.005797 -0.001788 -0.004301 0.000000 64829.000000
 -0.000530 0.000506 0.001839 -0.002992 0.003247 0.005801 -0.001790 -0.004300 0.000000 64830.000000
 -0.000531 0.000507 0.001842 -0.002991 0.003249 0.005791 -0.001790 -0.004300 0.000000 64831.000000
 -0.000530 0.000510 0.001845 -0.002991 0.003253 0.005797 -0.001787 -0.004300 0.000000 64832.000000
 -0.000529 0.000510 0.001845 -0.002990 0.003250 0.005795 -0.001789 -0.004304 0.000000 64833.000000
 -0.000532 0.000510 0.001845 -0.002991 0.003234 0.005798 -0.001789 -0.004302 0.000000 64834.000000
 -0.000531 0.000508 0.001843 -0.002994 0.003219 0.005789 -0.001793 -0.004302 0.000000 64835.000000
 -0.000533 0.000506 0.001843 -0.002993 0.003231 0.005783 -0.001798 -0.004301 0.000000 64836.000000
 -0.000532 0.000505 0.001839 -0.002992 0.003259 0.005813 -0.001793 -0.004302 0.000000 64837.000000
 -0.000531 0.000504 0.001842 -0.002992 0.003256 0.005801 -0.001793 -0.004302 0.000000 64838.000000
 -0.000532 0.000503 0.001839 -0.002990 0.003243 0.005794 -0.001793 -0.004303 0.000000 64839.000000
 -0.000530 0.000503 0.001840 -0.002985 0.003244 0.005796 -0.001788 -0.004301 0.000000 64840.000000
 -0.000530 0.000505 0.001841 -0.002985 0.003244 0.005801 -0.001784 -0.004300 0.000000 64841.000000
 -0.000531 0.000506 0.001842 -0.002988 0.003240 0.005803 -0.001788 -0.004303 0.000000 64842.000000
 -0.000530 0.000508 0.001842 -0.002990 0.003239 0.005803 -0.001791 -0.004301 0.000000 64843.000000
 -0.000531 0.000508 0.001842 -0.002988 0.003227 0.005802 -0.001793 -0.004304 0.000000 64844.000000
 -0.000530 0.000507 0.001843 -0.002989 0.003229 0.005817 -0.001788 -0.004304 0.000000 64845.000000
 -0.000528 0.000509 0.001846 -0.002986 0.003247 0.005814 -0.001784 -0.004304 0.000000 64846.000000
 -0.000531 0.000506 0.001842 -0.002990 0.003249 0.005792 -0.001788 -0.004305 0.000000 64847.000000
 -0.000533 0.000501 0.001835 -0.002993 0.003246 0.005792 -0.001792 -0.004302 0.000000 64848.000000
 -0.000531 0.000500 0.001836 -0.002990 0.003244 0.005785 -0.001792 -0.004302 0.000000 64849.000000
 -0.000529 0.000504 0.001840 -0.002989 0.003246 0.005791 -0.001793 -0.004304 0.000000 64850.000000
 -0.000528 0.000508 0.001844 -0.002988 0.003246 0.005803 -0.001787 -0.004301 0.000000 64851.000000
 -0.000526 0.000508 0.001848 -0.002987 0.003240 0.005797 -0.001786 -0.004297 0.000000 64852.000000
 -0.000527 0.000510 0.001847 -0.002988 0.003230 0.005792 -0.001788 -0.004302 0.000000 64853.000000
 -0.000528 0.000506 0.001843 -0.002990 0.003228 0.005790 -0.001789 -0.004302 0.000000 64854.000000
 -0.000529 0.000503 0.001840 -0.002994 0.003236 0.005788 -0.001795 -0.004303 0.000000 64855.000000
 -0.000530 0.000505 0.001841 -0.002995 0.003240 0.005789 -0.001793 -0.004305 0.000000 64856.000000
 -0.000530 0.000504 0.001841 -0.002996 0.003232 0.005778 -0.001791 -0.004306 0.000000 64857.000000
 -0.000530 0.000501 0.001840 -0.002991 0.003244 0.005794 -0.001788 -0.004304 0.000000 64858.000000
 -0.000527 0.000505 0.001842 -0.002990 0.003263 0.005798 -0.001791 -0.004302 0.000000 64859.000000
 -0.000527 0.000510 0.001849 -0.002988 0.003266 0.005799 -0.001788 -0.004301 0.000000 64860.000000
 -0.000525 0.000512 0.001850 -0.002988 0.003277 0.005804 -0.001786 -0.004302 0.000000 64861.000000
 -0.000526 0.000515 0.001855 -0.002986 0.003266 0.005813 -0.001782 -0.004303 0.000000 64862.000000
 -0.000526 0.000512 0.001852 -0.002985 0.003241 0.005788 -0.001779 -0.004303 0.000000 64863.000000
 -0.000532 0.000502 0.001836 -0.002991 0.003232 0.005785 -0.001788 -0.004302 0.000000 64864.000000
 -0.000533 0.000500 0.001832 -0.002993 0.003224 0.005792 -0.001791 -0.004300 0.000000 64865.000000
 -0.000529 0.000502 0.001835 -0.002990 0.003232 0.005798 -0.001791 -0.004301 0.000000 64866.000000
 -0.000531 0.000499 0.001834 -0.002993 0.003231 0.005792 -0.001794 -0.004306 0.000000 64867.000000
 -0.000529 0.000503 0.001837 -0.002996 0.003234 0.005789 -0.001797 -0.004306 0.000000 64868.000000
 -0.000530 0.000506 0.001843 -0.002991 0.003247 0.005792 -0.001793 -0.004306 0.000000 64869.000000
 -0.000528 0.000509 0.001845 -0.002989 0.003251 0.005789 -0.001791 -0.004304 0.000000 64870.000000
 -0.000527 0.000512 0.001846 -0.002989 0.003252 0.005779 -0.001794 -0.004303 0.000000 64871.000000
 -0.000529 0.000511 0.001847 -0.002991 0.003251 0.005793 -0.001793 -0.004303 0.000000 64872.000000
 -0.000529 0.000509 0.001846 -0.002986 0.003240 0.005813 -0.001784 -0.004301 0.000000 64873.000000
 -0.000528 0.000508 0.001845 -0.002989 0.003234 0.005799 -0.001785 -0.004304 0.000000 64874.000000
 -0.000528 0.000508 0.001845 -0.002990 0.003217 0.005785 -0.001791 -0.004305 0.000000 64875.000000
 -0.000529 0.000506 0.001843 -0.002994 0.003187 0.005769 -0.001798 -0.004304 0.000000 64876.000000
 -0.000530 0.000503 0.001839 -0.002992 0.003188 0.005784 -0.001798 -0.004306 0.000000 64877.000000
 -0.000529 0.000502 0.001836 -0.002988 0.003239 0.005816 -0.001791 -0.004305 0.000000 64878.000000
 -0.000528 0.000502 0.001837 -0.002990 0.003274 0.005805 -0.001791 -0.004305 0.000000 64879.000000
 -0.000527 0.000504 0.001838 -0.002987 0.003262 0.005806 -0.001786 -0.004301 0.000000 64880.000000
 -0.000530 0.000504 0.001838 -0.002987 0.003252 0.005794 -0.001784 -0.004303 0.000000 64881.000000
 -0.000530 0.000504 0.001837 -0.002989 0.003250 0.005792 -0.001788 -0.004303 0.000000 64882.000000
 -0.000530 0.000504 0.001839 -0.002989 0.003254 0.005795 -0.001788 -0.004302 0.000000 64883.000000
 -0.000531 0.000504 0.001842 -0.002989 0.003259 0.005790 -0.001789 -0.004301 0.000000 64884.000000
 -0.000532 0.000506 0.001845 -0.002988 0.003249 0.005781 -0.001789 -0.004305 0.000000 64885.000000
 -0.000530 0.000507 0.001843 -0.002988 0.003238 0.005795 -0.001787 -0.004305 0.000000 64886.000000
 -0.000530 0.000505 0.001842 -0.002988 0.003239 0.005798 -0.001784 -0.004308 0.000000 64887.000000
 -0.000530 0.000507 0.001842 -0.002989 0.003242 0.005786 -0.001789 -0.004308 0.000000 64888.000000
 -0.000528 0.000507 0.001843 -0.002991 0.003247 0.005792 -0.001788 -0.004305 0.000000 64889.000000
 -0.000528 0.000505 0.001842 -0.002991 0.003240 0.005798 -0.001794 -0.004304 0.000000 64890.000000
 -0.000530 0.000505 0.001842 -0.002990 0.003242 0.005789 -0.001794 -0.004303 0.000000 64891.000000
 -0.000529 0.000506 0.001840 -0.002986 0.003240 0.005795 -0.001788 -0.004302 0.000000 64892.000000
 -0.000529 0.000506 0.001841 -0.002988 0.003238 0.005787 -0.001785 -0.004305 0.000000 64893.000000
 -0.000529 0.000506 0.001840 -0.002986 0.003239 0.005790 -0.001789 -0.004305 0.000000 64894.000000
 -0.000529 0.000506 0.001840 -0.002986 0.003228 0.005803 -0.001787 -0.004305 0.000000 64895.000000
 -0.000530 0.000505 0.001841 -0.002987 0.003220 0.005802 -0.001787 -0.004306 0.000000 64896.000000
 -0.000531 0.000504 0.001838 -0.002990 0.003230 0.005783 -0.001792 -0.004308 0.000000 64897.000000
 -0.000531 0.000504 0.001839 -0.002987 0.003246 0.005781 -0.001789 -0.004310 0.000000 64898.000000
 -0.000529 0.000507 0.001841 -0.002985 0.003241 0.005785 -0.001787 -0.004306 0.000000 64899.000000
 -0.000527 0.000509 0.001846 -0.002986 0.003239 0.005792 -0.001788 -0.004302 0.000000 64900.000000
 -0.000526 0.000510 0.001849 -0.002984 0.003243 0.005797 -0.001786 -0.004300 0.000000 64901.000000
 -0.000525 0.000512 0.001848 -0.002982 0.003244 0.005803 -0.001783 -0.004302 0.000000 64902.000000
 -0.000525 0.000512 0.001848 -0.002981 0.003245 0.005801 -0.001782 -0.004303 0.000000 64903.000000
 -0.000527 0.000507 0.001841 -0.002985 0.003249 0.005810 -0.001783 -0.004303 0.000000 64904.000000
 -0.000532 0.000504 0.001835 -0.002988 0.003247 0.005812 -0.001790 -0.004305 0.000000 64905.000000
 -0.000533 0.000503 0.001834 -0.002989 0.003237 0.005775 -0.001792 -0.004306 0.000000 64906.000000
 -0.000531 0.000502 0.001833 -0.002990 0.003228 0.005767 -0.001791 -0.004304 0.000000 64907.000000
 -0.000528 0.000502 0.001836 -0.002991 0.003235 0.005766 -0.001793 -0.004302 0.000000 64908.000000
 -0.000526 0.000505 0.001840 -0.002988 0.003248 0.005773 -0.001793 -0.004300 0.000000 64909.000000
 -0.000525 0.000510 0.001846 -0.002984 0.003248 0.005788 -0.001788 -0.004301 0.000000 64910.000000
 -0.000527 0.000511 0.001847 -0.002986 0.003234 0.005788 -0.001790 -0.004301 0.000000 64911.000000
 -0.000528 0.000510 0.001845 -0.002984 0.003216 0.005783 -0.001788 -0.004300 0.000000 64912.000000
 -0.000527 0.000507 0.001843 -0.002985 0.003207 0.005782 -0.001785 -0.004301 0.000000 64913.000000
 -0.000528 0.000505 0.001838 -0.002988 0.003227 0.005785 -0.001793 -0.004301 0.000000 64914.000000
 -0.000532 0.000502 0.001835 -0.002988 0.003245 0.005786 -0.001792 -0.004298 0.000000 64915.000000
 -0.000530 0.000504 0.001835 -0.002985 0.003246 0.005796 -0.001782 -0.004296 0.000000 64916.000000
 -0.000529 0.000500 0.001835 -0.002985 0.003249 0.005807 -0.001781 -0.004298 0.000000 64917.000000
 -0.000530 0.000499 0.001837 -0.002984 0.003241 0.005781 -0.001789 -0.004299 0.000000 64918.000000
 -0.000529 0.000501 0.001837 -0.002983 0.003225 0.005785 -0.001790 -0.004295 0.000000 64919.000000
 -0.000528 0.000503 0.001838 -0.002983 0.003236 0.005802 -0.001789 -0.004294 0.000000 64920.000000
 -0.000529 0.000507 0.001843 -0.002984 0.003243 0.005795 -0.001785 -0.004296 0.000000 64921.000000
 -0.000529 0.000506 0.001842 -0.002985 0.003241 0.005776 -0.001786 -0.004298 0.000000 64922.000000
 -0.000530 0.000503 0.001838 -0.002986 0.003221 0.005777 -0.001787 -0.004298 0.000000 64923.000000
 -0.000531 0.000504 0.001840 -0.002986 0.003213 0.005776 -0.001790 -0.004300 0.000000 64924.000000
 -0.000528 0.000506 0.001840 -0.002982 0.003232 0.005810 -0.001785 -0.004299 0.000000 64925.000000
 -0.000529 0.000501 0.001834 -0.002984 0.003244 0.005804 -0.001785 -0.004303 0.000000 64926.000000
 -0.000533 0.000500 0.001831 -0.002989 0.003232 0.005789 -0.001790 -0.004308 0.000000 64927.000000
 -0.000531 0.000503 0.001838 -0.002986 0.003216 0.005777 -0.001792 -0.004310 0.000000 64928.000000
 -0.000527 0.000506 0.001843 -0.002981 0.003211 0.005778 -0.001790 -0.004306 0.000000 64929.000000
 -0.000524 0.000511 0.001849 -0.002977 0.003227 0.005789 -0.001784 -0.004303 0.000000 64930.000000
 -0.000525 0.000512 0.001849 -0.002974 0.003257 0.005801 -0.001775 -0.004302 0.000000 64931.000000
 -0.000530 0.000510 0.001845 -0.002980 0.003249 0.005799 -0.001781 -0.004302 0.000000 64932.000000
 -0.000532 0.000505 0.001837 -0.002984 0.003238 0.005795 -0.001786 -0.004301 0.000000 64933.000000
 -0.000535 0.000499 0.001827 -0.002988 0.003238 0.005784 -0.001794 -0.004301 0.000000 64934.000000
 -0.000533 0.000498 0.001826 -0.002989 0.003236 0.005780 -0.001792 -0.004304 0.000000 64935.000000
 -0.000532 0.000501 0.001830 -0.002989 0.003233 0.005779 -0.001790 -0.004305 0.000000 64936.000000
 -0.000533 0.000501 0.001831 -0.002989 0.003233 0.005782 -0.001792 -0.004306 0.000000 64937.000000
 -0.000531 0.000502 0.001833 -0.002990 0.003233 0.005790 -0.001793 -0.004306 0.000000 64938.000000
 -0.000527 0.000507 0.001837 -0.002986 0.003238 0.005792 -0.001792 -0.004304 0.000000 64939.000000
 -0.000525 0.000511 0.001843 -0.002983 0.003234 0.005789 -0.001785 -0.004304 0.000000 64940.000000
 -0.000525 0.000512 0.001843 -0.002980 0.003235 0.005795 -0.001781 -0.004302 0.000000 64941.000000
 -0.000527 0.000510 0.001842 -0.002980 0.003240 0.005789 -0.001787 -0.004301 0.000000 64942.000000
 -0.000528 0.000506 0.001836 -0.002982 0.003238 0.005778 -0.001789 -0.004304 0.000000 64943.000000
 -0.000529 0.000502 0.001830 -0.002982 0.003237 0.005789 -0.001787 -0.004305 0.000000 64944.000000
 -0.000528 0.000505 0.001833 -0.002983 0.003236 0.005794 -0.001790 -0.004304 0.000000 64945.000000
 -0.000530 0.000505 0.001834 -0.002986 0.003234 0.005784 -0.001792 -0.004308 0.000000 64946.000000
 -0.000528 0.000505 0.001835 -0.002986 0.003231 0.005776 -0.001793 -0.004313 0.000000 64947.000000
 -0.000527 0.000506 0.001837 -0.002985 0.003235 0.005768 -0.001795 -0.004312 0.000000 64948.000000
 -0.000527 0.000507 0.001839 -0.002982 0.003234 0.005779 -0.001791 -0.004309 0.000000 64949.000000
 -0.000526 0.000511 0.001847 -0.002979 0.003239 0.005770 -0.001787 -0.004310 0.000000 64950.000000
 -0.000527 0.000514 0.001850 -0.002979 0.003253 0.005776 -0.001786 -0.004310 0.000000 64951.000000
 -0.000528 0.000510 0.001844 -0.002977 0.003252 0.005784 -0.001780 -0.004309 0.000000 64952.000000
 -0.000526 0.000508 0.001840 -0.002978 0.003234 0.005788 -0.001781 -0.004309 0.000000 64953.000000
 -0.000530 0.000504 0.001834 -0.002977 0.003225 0.005813 -0.001784 -0.004306 0.000000 64954.000000
 -0.000531 0.000500 0.001831 -0.002980 0.003229 0.005806 -0.001787 -0.004307 0.000000 64955.000000
 -0.000530 0.000503 0.001832 -0.002983 0.003229 0.005783 -0.001789 -0.004309 0.000000 64956.000000
 -0.000531 0.000501 0.001829 -0.002984 0.003219 0.005792 -0.001791 -0.004311 0.000000 64957.000000
 -0.000531 0.000499 0.001828 -0.002988 0.003221 0.005804 -0.001792 -0.004309 0.000000 64958.000000
 -0.000529 0.000504 0.001834 -0.002984 0.003229 0.005800 -0.001787 -0.004308 0.000000 64959.000000
 -0.000527 0.000506 0.001840 -0.002981 0.003232 0.005786 -0.001787 -0.004309 0.000000 64960.000000
 -0.000524 0.000510 0.001843 -0.002980 0.003224 0.005767 -0.001786 -0.004306 0.000000 64961.000000
 -0.000523 0.000513 0.001846 -0.002980 0.003221 0.005761 -0.001787 -0.004308 0.000000 64962.000000
 -0.000524 0.000512 0.001846 -0.002980 0.003222 0.005758 -0.001790 -0.004308 0.000000 64963.000000
 -0.000525 0.000511 0.001842 -0.002978 0.003227 0.005790 -0.001783 -0.004311 0.000000 64964.000000
 -0.000529 0.000505 0.001833 -0.002977 0.003239 0.005825 -0.001778 -0.004310 0.000000 64965.000000
 -0.000529 0.000502 0.001830 -0.002982 0.003231 0.005783 -0.001790 -0.004311 0.000000 64966.000000
 -0.000529 0.000501 0.001829 -0.002985 0.003226 0.005776 -0.001791 -0.004313 0.000000 64967.000000
 -0.000529 0.000501 0.001828 -0.002981 0.003232 0.005782 -0.001785 -0.004312 0.000000 64968.000000
 -0.000528 0.000504 0.001832 -0.002978 0.003242 0.005778 -0.001785 -0.004311 0.000000 64969.000000
 -0.000528 0.000505 0.001835 -0.002978 0.003244 0.005781 -0.001788 -0.004310 0.000000 64970.000000
 -0.000528 0.000507 0.001839 -0.002976 0.003234 0.005784 -0.001785 -0.004308 0.000000 64971.000000
 -0.000526 0.000508 0.001841 -0.002976 0.003233 0.005786 -0.001785 -0.004309 0.000000 64972.000000
 -0.000524 0.000510 0.001843 -0.002976 0.003248 0.005776 -0.001788 -0.004311 0.000000 64973.000000
 -0.000524 0.000511 0.001848 -0.002975 0.003244 0.005769 -0.001788 -0.004312 0.000000 64974.000000
 -0.000525 0.000507 0.001845 -0.002977 0.003226 0.005775 -0.001793 -0.004313 0.000000 64975.000000
 -0.000527 0.000505 0.001842 -0.002981 0.003208 0.005793 -0.001794 -0.004315 0.000000 64976.000000
 -0.000529 0.000503 0.001836 -0.002981 0.003195 0.005792 -0.001788 -0.004312 0.000000 64977.000000
 -0.000529 0.000501 0.001830 -0.002980 0.003198 0.005790 -0.001787 -0.004309 0.000000 64978.000000
 -0.000527 0.000506 0.001835 -0.002981 0.003206 0.005773 -0.001790 -0.004307 0.000000 64979.000000
 -0.000525 0.000509 0.001841 -0.002979 0.003244 0.005773 -0.001782 -0.004300 0.000000 64980.000000
 -0.000526 0.000509 0.001841 -0.002974 0.003243 0.005771 -0.001779 -0.004291 0.000000 64981.000000
 -0.000528 0.000504 0.001834 -0.002976 0.003240 0.005781 -0.001787 -0.004287 0.000000 64982.000000
 -0.000531 0.000499 0.001827 -0.002977 0.003242 0.005791 -0.001788 -0.004276 0.000000 64983.000000
 -0.000532 0.000500 0.001827 -0.002977 0.003238 0.005783 -0.001787 -0.004269 0.000000 64984.000000
 -0.000530 0.000501 0.001832 -0.002976 0.003238 0.005770 -0.001785 -0.004264 0.000000 64985.000000
 -0.000531 0.000502 0.001835 -0.002976 0.003238 0.005765 -0.001788 -0.004262 0.000000 64986.000000
 -0.000533 0.000500 0.001833 -0.002976 0.003241 0.005767 -0.001794 -0.004266 0.000000 64987.000000
 -0.000531 0.000502 0.001833 -0.002977 0.003238 0.005774 -0.001792 -0.004266 0.000000 64988.000000
 -0.000529 0.000505 0.001837 -0.002976 0.003230 0.005789 -0.001787 -0.004266 0.000000 64989.000000
 -0.000528 0.000505 0.001838 -0.002973 0.003228 0.005793 -0.001785 -0.004268 0.000000 64990.000000
 -0.000532 0.000506 0.001835 -0.002973 0.003232 0.005782 -0.001784 -0.004270 0.000000 64991.000000
 -0.000532 0.000505 0.001833 -0.002972 0.003232 0.005770 -0.001786 -0.004276 0.000000 64992.000000
 -0.000532 0.000501 0.001832 -0.002973 0.003230 0.005773 -0.001787 -0.004280 0.000000 64993.000000
 -0.000531 0.000501 0.001830 -0.002974 0.003228 0.005791 -0.001784 -0.004281 0.000000 64994.000000
 -0.000532 0.000501 0.001829 -0.002975 0.003227 0.005785 -0.001789 -0.004285 0.000000 64995.000000
 -0.000532 0.000502 0.001829 -0.002975 0.003228 0.005785 -0.001790 -0.004285 0.000000 64996.000000
 -0.000534 0.000499 0.001830 -0.002978 0.003224 0.005785 -0.001791 -0.004293 0.000000 64997.000000
 -0.000537 0.000498 0.001832 -0.002979 0.003226 0.005783 -0.001793 -0.004299 0.000000 64998.000000
 -0.000535 0.000500 0.001834 -0.002977 0.003238 0.005793 -0.001792 -0.004306 0.000000 64999.000000
 -0.000532 0.000505 0.001837 -0.002972 0.003229 0.005796 -0.001784 -0.004320 0.000000 65000.000000
 -0.000535 0.000503 0.001835 -0.002974 0.003221 0.005787 -0.001787 -0.004339 0.000000 65001.000000
 -0.000536 0.000505 0.001837 -0.002976 0.003214 0.005783 -0.001787 -0.004352 0.000000 65002.000000
 -0.000533 0.000505 0.001840 -0.002976 0.003205 0.005774 -0.001789 -0.004357 0.000000 65003.000000
 -0.000530 0.000504 0.001838 -0.002980 0.003216 0.005779 -0.001792 -0.004360 0.000000 65004.000000
 -0.000531 0.000502 0.001837 -0.002978 0.003235 0.005776 -0.001788 -0.004362 0.000000 65005.000000
 -0.000532 0.000500 0.001831 -0.002979 0.003230 0.005766 -0.001791 -0.004366 0.000000 65006.000000
 -0.000534 0.000501 0.001833 -0.002981 0.003221 0.005766 -0.001796 -0.004366 0.000000 65007.000000
 -0.000532 0.000504 0.001839 -0.002977 0.003228 0.005779 -0.001795 -0.004355 0.000000 65008.000000
 -0.000530 0.000505 0.001841 -0.002973 0.003236 0.005776 -0.001789 -0.004348 0.000000 65009.000000
 -0.000527 0.000510 0.001846 -0.002970 0.003236 0.005760 -0.001786 -0.004343 0.000000 65010.000000
 -0.000526 0.000509 0.001843 -0.002969 0.003232 0.005806 -0.001782 -0.004335 0.000000 65011.000000
 -0.000525 0.000506 0.001837 -0.002972 0.003238 0.005798 -0.001788 -0.004330 0.000000 65012.000000
 -0.000526 0.000508 0.001838 -0.002974 0.003238 0.005777 -0.001792 -0.004334 0.000000 65013.000000
 -0.000528 0.000508 0.001839 -0.002974 0.003235 0.005774 -0.001792 -0.004338 0.000000 65014.000000
 -0.000528 0.000509 0.001842 -0.002973 0.003228 0.005773 -0.001792 -0.004337 0.000000 65015.000000
 -0.000528 0.000510 0.001843 -0.002975 0.003238 0.005791 -0.001791 -0.004333 0.000000 65016.000000
 -0.000530 0.000502 0.001837 -0.002975 0.003225 0.005814 -0.001790 -0.004331 0.000000 65017.000000
 -0.000527 0.000498 0.001829 -0.002974 0.003214 0.005800 -0.001792 -0.004323 0.000000 65018.000000
 -0.000526 0.000504 0.001832 -0.002972 0.003224 0.005779 -0.001792 -0.004314 0.000000 65019.000000
 -0.000524 0.000506 0.001839 -0.002970 0.003232 0.005758 -0.001790 -0.004307 0.000000 65020.000000
 -0.000524 0.000505 0.001842 -0.002968 0.003234 0.005773 -0.001786 -0.004303 0.000000 65021.000000
 -0.000526 0.000507 0.001840 -0.002968 0.003234 0.005789 -0.001784 -0.004300 0.000000 65022.000000
 -0.000528 0.000503 0.001837 -0.002969 0.003231 0.005792 -0.001783 -0.004297 0.000000 65023.000000
 -0.000528 0.000502 0.001834 -0.002973 0.003230 0.005781 -0.001791 -0.004299 0.000000 65024.000000
 -0.000528 0.000506 0.001840 -0.002972 0.003225 0.005789 -0.001789 -0.004300 0.000000 65025.000000
 -0.000527 0.000508 0.001843 -0.002968 0.003204 0.005789 -0.001785 -0.004302 0.000000 65026.000000
 -0.000526 0.000505 0.001838 -0.002973 0.003199 0.005779 -0.001791 -0.004307 0.000000 65027.000000
 -0.000527 0.000504 0.001836 -0.002973 0.003187 0.005767 -0.001792 -0.004303 0.000000 65028.000000
 -0.000526 0.000507 0.001839 -0.002968 0.003210 0.005773 -0.001788 -0.004301 0.000000 65029.000000
 -0.000528 0.000506 0.001840 -0.002966 0.003257 0.005779 -0.001784 -0.004301 0.000000 65030.000000
 -0.000528 0.000503 0.001831 -0.002968 0.003242 0.005771 -0.001784 -0.004304 0.000000 65031.000000
 -0.000527 0.000503 0.001830 -0.002970 0.003240 0.005779 -0.001788 -0.004305 0.000000 65032.000000
 -0.000528 0.000502 0.001833 -0.002971 0.003240 0.005770 -0.001791 -0.004303 0.000000 65033.000000
 -0.000529 0.000503 0.001833 -0.002972 0.003237 0.005754 -0.001791 -0.004304 0.000000 65034.000000
 -0.000528 0.000503 0.001836 -0.002970 0.003239 0.005772 -0.001791 -0.004308 0.000000 65035.000000
 -0.000527 0.000506 0.001840 -0.002968 0.003230 0.005784 -0.001788 -0.004306 0.000000 65036.000000
 -0.000529 0.000504 0.001835 -0.002973 0.003223 0.005780 -0.001792 -0.004307 0.000000 65037.000000
 -0.000531 0.000500 0.001830 -0.002972 0.003230 0.005764 -0.001791 -0.004306 0.000000 65038.000000
 -0.000530 0.000502 0.001832 -0.002970 0.003237 0.005765 -0.001792 -0.004306 0.000000 65039.000000
 -0.000526 0.000504 0.001831 -0.002967 0.003232 0.005789 -0.001788 -0.004304 0.000000 65040.000000
 -0.000526 0.000504 0.001832 -0.002967 0.003235 0.005789 -0.001786 -0.004304 0.000000 65041.000000
 -0.000527 0.000504 0.001833 -0.002967 0.003235 0.005784 -0.001790 -0.004304 0.000000 65042.000000
 -0.000529 0.000502 0.001833 -0.002969 0.003226 0.005783 -0.001791 -0.004305 0.000000 65043.000000
 -0.000528 0.000504 0.001830 -0.002971 0.003232 0.005779 -0.001789 -0.004307 0.000000 65044.000000
 -0.000527 0.000503 0.001833 -0.002970 0.003234 0.005778 -0.001790 -0.004308 0.000000 65045.000000
 -0.000527 0.000503 0.001835 -0.002971 0.003227 0.005777 -0.001792 -0.004310 0.000000 65046.000000
 -0.000530 0.000501 0.001833 -0.002971 0.003215 0.005766 -0.001792 -0.004311 0.000000 65047.000000
 -0.000531 0.000501 0.001836 -0.002969 0.003208 0.005769 -0.001793 -0.004310 0.000000 65048.000000
 -0.000530 0.000502 0.001836 -0.002967 0.003218 0.005773 -0.001791 -0.004305 0.000000 65049.000000
 -0.000528 0.000503 0.001838 -0.002967 0.003226 0.005774 -0.001788 -0.004301 0.000000 65050.000000
 -0.000527 0.000506 0.001840 -0.002966 0.003224 0.005775 -0.001788 -0.004303 0.000000 65051.000000
 -0.000527 0.000506 0.001840 -0.002965 0.003221 0.005775 -0.001786 -0.004306 0.000000 65052.000000
 -0.000528 0.000505 0.001836 -0.002967 0.003205 0.005779 -0.001788 -0.004306 0.000000 65053.000000
 -0.000529 0.000505 0.001835 -0.002968 0.003204 0.005760 -0.001789 -0.004305 0.000000 65054.000000
 -0.000525 0.000507 0.001836 -0.002966 0.003228 0.005787 -0.001785 -0.004304 0.000000 65055.000000
 -0.000528 0.000502 0.001835 -0.002967 0.003244 0.005794 -0.001787 -0.004305 0.000000 65056.000000
 -0.000528 0.000500 0.001835 -0.002971 0.003236 0.005775 -0.001795 -0.004308 0.000000 65057.000000
 -0.000528 0.000502 0.001835 -0.002968 0.003221 0.005778 -0.001791 -0.004308 0.000000 65058.000000
 -0.000527 0.000503 0.001834 -0.002966 0.003208 0.005770 -0.001789 -0.004306 0.000000 65059.000000
 -0.000525 0.000506 0.001837 -0.002965 0.003221 0.005771 -0.001788 -0.004306 0.000000 65060.000000
 -0.000527 0.000506 0.001835 -0.002965 0.003230 0.005772 -0.001792 -0.004306 0.000000 65061.000000
 -0.000529 0.000504 0.001836 -0.002966 0.003227 0.005780 -0.001791 -0.004307 0.000000 65062.000000
 -0.000526 0.000504 0.001842 -0.002966 0.003223 0.005788 -0.001788 -0.004308 0.000000 65063.000000
 -0.000527 0.000505 0.001842 -0.002969 0.003222 0.005775 -0.001794 -0.004308 0.000000 65064.000000
 -0.000526 0.000508 0.001843 -0.002968 0.003216 0.005768 -0.001794 -0.004309 0.000000 65065.000000
 -0.000528 0.000504 0.001837 -0.002967 0.003218 0.005781 -0.001793 -0.004307 0.000000 65066.000000
 -0.000530 0.000498 0.001830 -0.002968 0.003226 0.005768 -0.001792 -0.004308 0.000000 65067.000000
 -0.000529 0.000499 0.001830 -0.002971 0.003229 0.005758 -0.001793 -0.004306 0.000000 65068.000000
 -0.000529 0.000502 0.001836 -0.002970 0.003221 0.005770 -0.001791 -0.004305 0.000000 65069.000000
 -0.000528 0.000503 0.001837 -0.002964 0.003224 0.005783 -0.001791 -0.004305 0.000000 65070.000000
 -0.000528 0.000506 0.001836 -0.002963 0.003228 0.005782 -0.001793 -0.004306 0.000000 65071.000000
 -0.000529 0.000505 0.001834 -0.002967 0.003229 0.005765 -0.001792 -0.004307 0.000000 65072.000000
 -0.000529 0.000503 0.001834 -0.002966 0.003231 0.005756 -0.001791 -0.004306 0.000000 65073.000000
 -0.000530 0.000501 0.001834 -0.002962 0.003233 0.005753 -0.001790 -0.004307 0.000000 65074.000000
 -0.000531 0.000501 0.001833 -0.002961 0.003218 0.005795 -0.001788 -0.004308 0.000000 65075.000000
 -0.000530 0.000503 0.001833 -0.002962 0.003209 0.005789 -0.001787 -0.004307 0.000000 65076.000000
 -0.000531 0.000500 0.001831 -0.002967 0.003211 0.005767 -0.001794 -0.004309 0.000000 65077.000000
 -0.000531 0.000498 0.001832 -0.002967 0.003212 0.005770 -0.001792 -0.004308 0.000000 65078.000000
 -0.000528 0.000502 0.001833 -0.002963 0.003219 0.005771 -0.001790 -0.004307 0.000000 65079.000000
 -0.000527 0.000507 0.001835 -0.002962 0.003227 0.005772 -0.001789 -0.004304 0.000000 65080.000000
 -0.000529 0.000507 0.001837 -0.002962 0.003228 0.005769 -0.001788 -0.004303 0.000000 65081.000000
 -0.000529 0.000507 0.001840 -0.002962 0.003229 0.005774 -0.001786 -0.004305 0.000000 65082.000000
 -0.000528 0.000505 0.001837 -0.002964 0.003222 0.005796 -0.001788 -0.004306 0.000000 65083.000000
 -0.000529 0.000502 0.001836 -0.002963 0.003198 0.005801 -0.001790 -0.004305 0.000000 65084.000000
 -0.000526 0.000507 0.001843 -0.002961 0.003174 0.005797 -0.001785 -0.004304 0.000000 65085.000000
 -0.000525 0.000506 0.001845 -0.002961 0.003197 0.005778 -0.001789 -0.004306 0.000000 65086.000000
 -0.000530 0.000501 0.001835 -0.002965 0.003233 0.005755 -0.001796 -0.004310 0.000000 65087.000000
 -0.000530 0.000499 0.001832 -0.002965 0.003219 0.005756 -0.001796 -0.004308 0.000000 65088.000000
 -0.000531 0.000498 0.001830 -0.002964 0.003213 0.005778 -0.001793 -0.004309 0.000000 65089.000000
 -0.000531 0.000501 0.001828 -0.002963 0.003221 0.005771 -0.001789 -0.004307 0.000000 65090.000000
 -0.000533 0.000500 0.001825 -0.002964 0.003225 0.005766 -0.001795 -0.004304 0.000000 65091.000000
 -0.000533 0.000497 0.001825 -0.002964 0.003223 0.005770 -0.001794 -0.004302 0.000000 65092.000000
 -0.000531 0.000501 0.001831 -0.002962 0.003228 0.005768 -0.001793 -0.004304 0.000000 65093.000000
 -0.000528 0.000504 0.001835 -0.002962 0.003235 0.005767 -0.001793 -0.004308 0.000000 65094.000000
 -0.000527 0.000507 0.001837 -0.002963 0.003228 0.005766 -0.001795 -0.004309 0.000000 65095.000000
 -0.000527 0.000506 0.001838 -0.002961 0.003200 0.005773 -0.001793 -0.004310 0.000000 65096.000000
 -0.000532 0.000501 0.001834 -0.002963 0.003179 0.005753 -0.001794 -0.004312 0.000000 65097.000000
 -0.000534 0.000495 0.001825 -0.002966 0.003205 0.005761 -0.001799 -0.004310 0.000000 65098.000000
 -0.000531 0.000497 0.001825 -0.002962 0.003224 0.005799 -0.001790 -0.004305 0.000000 65099.000000
 -0.000531 0.000503 0.001829 -0.002961 0.003223 0.005780 -0.001791 -0.004306 0.000000 65100.000000
 -0.000530 0.000503 0.001828 -0.002962 0.003223 0.005774 -0.001791 -0.004307 0.000000 65101.000000
 -0.000529 0.000502 0.001829 -0.002959 0.003219 0.005776 -0.001790 -0.004305 0.000000 65102.000000
 -0.000530 0.000502 0.001831 -0.002958 0.003213 0.005768 -0.001790 -0.004305 0.000000 65103.000000
 -0.000531 0.000502 0.001831 -0.002958 0.003209 0.005759 -0.001792 -0.004305 0.000000 65104.000000
 -0.000533 0.000501 0.001833 -0.002959 0.003208 0.005775 -0.001794 -0.004308 0.000000 65105.000000
 -0.000533 0.000500 0.001831 -0.002961 0.003211 0.005806 -0.001794 -0.004310 0.000000 65106.000000
 -0.000534 0.000496 0.001829 -0.002964 0.003204 0.005772 -0.001798 -0.004313 0.000000 65107.000000
 -0.000531 0.000500 0.001832 -0.002965 0.003202 0.005766 -0.001800 -0.004311 0.000000 65108.000000
 -0.000528 0.000501 0.001835 -0.002962 0.003208 0.005778 -0.001794 -0.004308 0.000000 65109.000000
 -0.000528 0.000502 0.001837 -0.002958 0.003222 0.005787 -0.001789 -0.004306 0.000000 65110.000000
 -0.000530 0.000504 0.001838 -0.002957 0.003225 0.005783 -0.001785 -0.004305 0.000000 65111.000000
 -0.000531 0.000504 0.001835 -0.002957 0.003210 0.005765 -0.001781 -0.004307 0.000000 65112.000000
 -0.000530 0.000502 0.001830 -0.002959 0.003211 0.005765 -0.001790 -0.004306 0.000000 65113.000000
 -0.000533 0.000501 0.001831 -0.002965 0.003218 0.005762 -0.001797 -0.004310 0.000000 65114.000000
 -0.000531 0.000502 0.001832 -0.002962 0.003215 0.005756 -0.001795 -0.004310 0.000000 65115.000000
 -0.000531 0.000500 0.001831 -0.002963 0.003212 0.005766 -0.001794 -0.004309 0.000000 65116.000000
 -0.000535 0.000497 0.001829 -0.002966 0.003212 0.005769 -0.001795 -0.004313 0.000000 65117.000000
 -0.000533 0.000498 0.001829 -0.002962 0.003214 0.005762 -0.001796 -0.004313 0.000000 65118.000000
 -0.000529 0.000501 0.001832 -0.002959 0.003215 0.005765 -0.001796 -0.004309 0.000000 65119.000000
 -0.000530 0.000502 0.001832 -0.002959 0.003218 0.005768 -0.001794 -0.004308 0.000000 65120.000000
 -0.000530 0.000503 0.001836 -0.002958 0.003218 0.005773 -0.001792 -0.004307 0.000000 65121.000000
 -0.000527 0.000506 0.001840 -0.002957 0.003233 0.005775 -0.001795 -0.004305 0.000000 65122.000000
 -0.000528 0.000508 0.001841 -0.002958 0.003233 0.005774 -0.001792 -0.004305 0.000000 65123.000000
 -0.000531 0.000508 0.001842 -0.002958 0.003228 0.005773 -0.001785 -0.004306 0.000000 65124.000000
 -0.000533 0.000505 0.001839 -0.002957 0.003214 0.005772 -0.001786 -0.004306 0.000000 65125.000000
 -0.000533 0.000501 0.001831 -0.002958 0.003207 0.005768 -0.001789 -0.004307 0.000000 65126.000000
 -0.000534 0.000497 0.001824 -0.002963 0.003203 0.005762 -0.001793 -0.004308 0.000000 65127.000000
 -0.000533 0.000497 0.001827 -0.002963 0.003204 0.005750 -0.001796 -0.004306 0.000000 65128.000000
 -0.000533 0.000496 0.001823 -0.002960 0.003213 0.005759 -0.001793 -0.004304 0.000000 65129.000000
 -0.000532 0.000497 0.001825 -0.002958 0.003214 0.005765 -0.001793 -0.004303 0.000000 65130.000000
 -0.000532 0.000498 0.001828 -0.002957 0.003215 0.005781 -0.001793 -0.004302 0.000000 65131.000000
 -0.000534 0.000500 0.001831 -0.002957 0.003213 0.005773 -0.001792 -0.004304 0.000000 65132.000000
 -0.000532 0.000501 0.001833 -0.002957 0.003214 0.005773 -0.001793 -0.004303 0.000000 65133.000000
 -0.000532 0.000501 0.001830 -0.002958 0.003214 0.005773 -0.001794 -0.004304 0.000000 65134.000000
 -0.000531 0.000502 0.001829 -0.002960 0.003213 0.005767 -0.001795 -0.004305 0.000000 65135.000000
 -0.000531 0.000500 0.001830 -0.002959 0.003216 0.005770 -0.001797 -0.004305 0.000000 65136.000000
 -0.000535 0.000499 0.001830 -0.002960 0.003215 0.005779 -0.001795 -0.004307 0.000000 65137.000000
 -0.000532 0.000499 0.001831 -0.002961 0.003217 0.005764 -0.001797 -0.004305 0.000000 65138.000000
 -0.000531 0.000501 0.001834 -0.002959 0.003218 0.005764 -0.001793 -0.004305 0.000000 65139.000000
 -0.000532 0.000500 0.001830 -0.002960 0.003225 0.005765 -0.001791 -0.004304 0.000000 65140.000000
 -0.000532 0.000500 0.001832 -0.002961 0.003235 0.005750 -0.001796 -0.004303 0.000000 65141.000000
 -0.000530 0.000503 0.001832 -0.002961 0.003230 0.005749 -0.001798 -0.004306 0.000000 65142.000000
 -0.000529 0.000502 0.001830 -0.002959 0.003201 0.005773 -0.001793 -0.004304 0.000000 65143.000000
 -0.000528 0.000501 0.001828 -0.002958 0.003202 0.005774 -0.001792 -0.004306 0.000000 65144.000000
 -0.000530 0.000503 0.001830 -0.002959 0.003213 0.005758 -0.001797 -0.004308 0.000000 65145.000000
 -0.000531 0.000503 0.001833 -0.002961 0.003217 0.005757 -0.001798 -0.004309 0.000000 65146.000000
 -0.000531 0.000503 0.001833 -0.002960 0.003207 0.005770 -0.001799 -0.004310 0.000000 65147.000000
 -0.000533 0.000500 0.001835 -0.002964 0.003181 0.005761 -0.001802 -0.004310 0.000000 65148.000000
 -0.000531 0.000503 0.001836 -0.002960 0.003169 0.005776 -0.001800 -0.004310 0.000000 65149.000000
 -0.000528 0.000504 0.001836 -0.002957 0.003207 0.005774 -0.001794 -0.004307 0.000000 65150.000000
 -0.000530 0.000503 0.001831 -0.002956 0.003258 0.005778 -0.001791 -0.004307 0.000000 65151.000000
 -0.000529 0.000503 0.001829 -0.002955 0.003239 0.005772 -0.001796 -0.004309 0.000000 65152.000000
 -0.000531 0.000501 0.001832 -0.002955 0.003205 0.005777 -0.001798 -0.004310 0.000000 65153.000000
 -0.000529 0.000502 0.001837 -0.002956 0.003194 0.005792 -0.001799 -0.004310 0.000000 65154.000000
 -0.000528 0.000503 0.001836 -0.002958 0.003215 0.005779 -0.001803 -0.004311 0.000000 65155.000000
 -0.000529 0.000501 0.001836 -0.002958 0.003230 0.005758 -0.001799 -0.004313 0.000000 65156.000000
 -0.000532 0.000498 0.001829 -0.002958 0.003225 0.005759 -0.001797 -0.004314 0.000000 65157.000000
 -0.000533 0.000498 0.001826 -0.002961 0.003220 0.005757 -0.001799 -0.004312 0.000000 65158.000000
 -0.000531 0.000497 0.001827 -0.002961 0.003221 0.005762 -0.001803 -0.004309 0.000000 65159.000000
 -0.000529 0.000504 0.001830 -0.002956 0.003223 0.005767 -0.001796 -0.004308 0.000000 65160.000000
 -0.000530 0.000504 0.001831 -0.002957 0.003222 0.005756 -0.001796 -0.004310 0.000000 65161.000000
 -0.000531 0.000506 0.001834 -0.002958 0.003219 0.005762 -0.001797 -0.004311 0.000000 65162.000000
 -0.000531 0.000505 0.001832 -0.002959 0.003221 0.005760 -0.001800 -0.004312 0.000000 65163.000000
 -0.000531 0.000503 0.001829 -0.002957 0.003219 0.005752 -0.001802 -0.004313 0.000000 65164.000000
 -0.000531 0.000503 0.001830 -0.002955 0.003214 0.005752 -0.001799 -0.004312 0.000000 65165.000000
 -0.000530 0.000506 0.001833 -0.002955 0.003208 0.005766 -0.001798 -0.004311 0.000000 65166.000000
 -0.000532 0.000504 0.001832 -0.002956 0.003212 0.005783 -0.001800 -0.004312 0.000000 65167.000000
 -0.000532 0.000503 0.001836 -0.002956 0.003215 0.005784 -0.001803 -0.004314 0.000000 65168.000000
 -0.000531 0.000506 0.001841 -0.002953 0.003215 0.005775 -0.001801 -0.004313 0.000000 65169.000000
 -0.000530 0.000508 0.001844 -0.002954 0.003222 0.005763 -0.001797 -0.004312 0.000000 65170.000000
 -0.000530 0.000508 0.001839 -0.002957 0.003227 0.005751 -0.001794 -0.004311 0.000000 65171.000000
 -0.000530 0.000507 0.001836 -0.002959 0.003233 0.005740 -0.001802 -0.004309 0.000000 65172.000000
 -0.000531 0.000503 0.001832 -0.002959 0.003235 0.005761 -0.001804 -0.004308 0.000000 65173.000000
 -0.000531 0.000502 0.001830 -0.002957 0.003222 0.005768 -0.001799 -0.004309 0.000000 65174.000000
 -0.000533 0.000501 0.001824 -0.002960 0.003216 0.005769 -0.001804 -0.004312 0.000000 65175.000000
 -0.000533 0.000498 0.001823 -0.002961 0.003219 0.005760 -0.001809 -0.004312 0.000000 65176.000000
 -0.000532 0.000498 0.001824 -0.002961 0.003210 0.005751 -0.001807 -0.004313 0.000000 65177.000000
 -0.000531 0.000500 0.001828 -0.002960 0.003214 0.005757 -0.001805 -0.004312 0.000000 65178.000000
 -0.000531 0.000504 0.001833 -0.002957 0.003219 0.005763 -0.001802 -0.004309 0.000000 65179.000000
 -0.000529 0.000507 0.001835 -0.002953 0.003222 0.005766 -0.001799 -0.004309 0.000000 65180.000000
 -0.000529 0.000509 0.001838 -0.002952 0.003229 0.005764 -0.001796 -0.004309 0.000000 65181.000000
 -0.000531 0.000505 0.001838 -0.002955 0.003229 0.005764 -0.001799 -0.004308 0.000000 65182.000000
 -0.000531 0.000505 0.001837 -0.002955 0.003222 0.005769 -0.001800 -0.004308 0.000000 65183.000000
 -0.000532 0.000505 0.001834 -0.002955 0.003221 0.005782 -0.001800 -0.004311 0.000000 65184.000000
 -0.000532 0.000505 0.001835 -0.002955 0.003214 0.005759 -0.001799 -0.004309 0.000000 65185.000000
 -0.000535 0.000504 0.001833 -0.002957 0.003206 0.005746 -0.001803 -0.004309 0.000000 65186.000000
 -0.000538 0.000502 0.001836 -0.002960 0.003208 0.005751 -0.001806 -0.004313 0.000000 65187.000000
 -0.000536 0.000498 0.001837 -0.002960 0.003207 0.005760 -0.001806 -0.004311 0.000000 65188.000000
 -0.000533 0.000503 0.001837 -0.002956 0.003210 0.005760 -0.001804 -0.004308 0.000000 65189.000000
 -0.000531 0.000503 0.001833 -0.002954 0.003209 0.005772 -0.001803 -0.004309 0.000000 65190.000000
 -0.000531 0.000503 0.001832 -0.002951 0.003213 0.005768 -0.001797 -0.004308 0.000000 65191.000000
 -0.000534 0.000501 0.001832 -0.002955 0.003217 0.005751 -0.001803 -0.004308 0.000000 65192.000000
 -0.000531 0.000501 0.001832 -0.002952 0.003222 0.005762 -0.001799 -0.004308 0.000000 65193.000000
 -0.000532 0.000503 0.001832 -0.002952 0.003221 0.005771 -0.001795 -0.004308 0.000000 65194.000000
 -0.000532 0.000503 0.001833 -0.002953 0.003220 0.005768 -0.001799 -0.004310 0.000000 65195.000000
 -0.000533 0.000506 0.001835 -0.002952 0.003220 0.005767 -0.001799 -0.004311 0.000000 65196.000000
 -0.000532 0.000503 0.001830 -0.002957 0.003215 0.005751 -0.001802 -0.004311 0.000000 65197.000000
 -0.000531 0.000501 0.001828 -0.002958 0.003222 0.005756 -0.001804 -0.004310 0.000000 65198.000000
 -0.000529 0.000505 0.001833 -0.002956 0.003222 0.005767 -0.001804 -0.004312 0.000000 65199.000000
 -0.000529 0.000508 0.001837 -0.002951 0.003207 0.005777 -0.001796 -0.004311 0.000000 65200.000000
 -0.000530 0.000505 0.001838 -0.002952 0.003187 0.005760 -0.001799 -0.004309 0.000000 65201.000000
 -0.000531 0.000507 0.001839 -0.002952 0.003199 0.005751 -0.001799 -0.004308 0.000000 65202.000000
 -0.000531 0.000508 0.001840 -0.002951 0.003213 0.005746 -0.001800 -0.004308 0.000000 65203.000000
 -0.000532 0.000507 0.001838 -0.002952 0.003204 0.005759 -0.001800 -0.004310 0.000000 65204.000000
 -0.000533 0.000505 0.001836 -0.002951 0.003199 0.005791 -0.001793 -0.004310 0.000000 65205.000000
 -0.000533 0.000504 0.001831 -0.002950 0.003225 0.005783 -0.001797 -0.004309 0.000000 65206.000000
 -0.000530 0.000499 0.001827 -0.002953 0.003223 0.005744 -0.001802 -0.004311 0.000000 65207.000000
 -0.000532 0.000502 0.001829 -0.002953 0.003223 0.005739 -0.001807 -0.004312 0.000000 65208.000000
 -0.000532 0.000502 0.001832 -0.002954 0.003223 0.005764 -0.001805 -0.004309 0.000000 65209.000000
 -0.000531 0.000505 0.001837 -0.002953 0.003218 0.005778 -0.001801 -0.004308 0.000000 65210.000000
 -0.000530 0.000509 0.001841 -0.002951 0.003224 0.005766 -0.001798 -0.004309 0.000000 65211.000000
 -0.000531 0.000507 0.001837 -0.002951 0.003232 0.005772 -0.001793 -0.004307 0.000000 65212.000000
 -0.000532 0.000505 0.001834 -0.002954 0.003228 0.005774 -0.001799 -0.004309 0.000000 65213.000000
 -0.000531 0.000504 0.001838 -0.002955 0.003227 0.005784 -0.001805 -0.004310 0.000000 65214.000000
 -0.000531 0.000508 0.001840 -0.002952 0.003225 0.005791 -0.001802 -0.004311 0.000000 65215.000000
 -0.000533 0.000507 0.001835 -0.002951 0.003215 0.005771 -0.001797 -0.004310 0.000000 65216.000000
 -0.000536 0.000496 0.001820 -0.002959 0.003213 0.005751 -0.001804 -0.004311 0.000000 65217.000000
 -0.000537 0.000495 0.001821 -0.002963 0.003217 0.005734 -0.001808 -0.004313 0.000000 65218.000000
 -0.000534 0.000499 0.001827 -0.002960 0.003213 0.005741 -0.001804 -0.004310 0.000000 65219.000000
 -0.000532 0.000501 0.001829 -0.002957 0.003217 0.005749 -0.001804 -0.004307 0.000000 65220.000000
 -0.000531 0.000504 0.001832 -0.002954 0.003219 0.005753 -0.001801 -0.004307 0.000000 65221.000000
 -0.000532 0.000504 0.001833 -0.002949 0.003223 0.005758 -0.001797 -0.004308 0.000000 65222.000000
 -0.000533 0.000504 0.001834 -0.002952 0.003223 0.005757 -0.001798 -0.004310 0.000000 65223.000000
 -0.000534 0.000502 0.001833 -0.002954 0.003220 0.005757 -0.001801 -0.004312 0.000000 65224.000000
 -0.000532 0.000500 0.001830 -0.002954 0.003219 0.005755 -0.001800 -0.004312 0.000000 65225.000000
 -0.000531 0.000501 0.001829 -0.002954 0.003219 0.005755 -0.001800 -0.004311 0.000000 65226.000000
 -0.000535 0.000499 0.001829 -0.002956 0.003216 0.005753 -0.001804 -0.004313 0.000000 65227.000000
 -0.000531 0.000501 0.001830 -0.002957 0.003214 0.005753 -0.001802 -0.004310 0.000000 65228.000000
 -0.000528 0.000506 0.001836 -0.002953 0.003219 0.005757 -0.001799 -0.004306 0.000000 65229.000000
 -0.000528 0.000509 0.001840 -0.002950 0.003231 0.005759 -0.001795 -0.004307 0.000000 65230.000000
 -0.000528 0.000510 0.001843 -0.002951 0.003235 0.005758 -0.001796 -0.004309 0.000000 65231.000000
 -0.000528 0.000509 0.001841 -0.002951 0.003225 0.005766 -0.001797 -0.004309 0.000000 65232.000000
 -0.000530 0.000506 0.001835 -0.002954 0.003226 0.005776 -0.001802 -0.004308 0.000000 65233.000000
 -0.000530 0.000506 0.001838 -0.002954 0.003208 0.005755 -0.001799 -0.004308 0.000000 65234.000000
 -0.000529 0.000508 0.001842 -0.002954 0.003195 0.005735 -0.001797 -0.004310 0.000000 65235.000000
 -0.000529 0.000506 0.001838 -0.002955 0.003211 0.005752 -0.001801 -0.004311 0.000000 65236.000000
 -0.000531 0.000499 0.001829 -0.002957 0.003219 0.005778 -0.001802 -0.004313 0.000000 65237.000000
 -0.000531 0.000497 0.001825 -0.002959 0.003209 0.005762 -0.001803 -0.004309 0.000000 65238.000000
 -0.000529 0.000501 0.001829 -0.002955 0.003214 0.005745 -0.001800 -0.004306 0.000000 65239.000000
 -0.000529 0.000504 0.001835 -0.002955 0.003216 0.005743 -0.001799 -0.004306 0.000000 65240.000000
 -0.000531 0.000505 0.001835 -0.002954 0.003219 0.005756 -0.001801 -0.004307 0.000000 65241.000000
 -0.000531 0.000506 0.001835 -0.002953 0.003219 0.005766 -0.001800 -0.004308 0.000000 65242.000000
 -0.000530 0.000506 0.001835 -0.002955 0.003215 0.005753 -0.001800 -0.004306 0.000000 65243.000000
 -0.000531 0.000505 0.001835 -0.002957 0.003212 0.005752 -0.001799 -0.004307 0.000000 65244.000000
 -0.000533 0.000504 0.001834 -0.002957 0.003218 0.005758 -0.001802 -0.004307 0.000000 65245.000000
 -0.000533 0.000505 0.001833 -0.002955 0.003220 0.005766 -0.001799 -0.004310 0.000000 65246.000000
 -0.000533 0.000504 0.001832 -0.002958 0.003215 0.005753 -0.001804 -0.004312 0.000000 65247.000000
 -0.000532 0.000504 0.001836 -0.002959 0.003215 0.005746 -0.001804 -0.004310 0.000000 65248.000000
 -0.000530 0.000505 0.001837 -0.002956 0.003213 0.005745 -0.001805 -0.004310 0.000000 65249.000000
 -0.000527 0.000509 0.001839 -0.002950 0.003214 0.005764 -0.001800 -0.004308 0.000000 65250.000000
 -0.000529 0.000511 0.001842 -0.002947 0.003209 0.005778 -0.001796 -0.004308 0.000000 65251.000000
 -0.000530 0.000509 0.001840 -0.002949 0.003208 0.005783 -0.001795 -0.004310 0.000000 65252.000000
 -0.000528 0.000508 0.001837 -0.002952 0.003210 0.005770 -0.001798 -0.004306 0.000000 65253.000000
 -0.000531 0.000505 0.001834 -0.002953 0.003198 0.005758 -0.001802 -0.004306 0.000000 65254.000000
 -0.000533 0.000504 0.001833 -0.002954 0.003197 0.005757 -0.001800 -0.004310 0.000000 65255.000000
 -0.000532 0.000503 0.001833 -0.002954 0.003214 0.005774 -0.001796 -0.004311 0.000000 65256.000000
 -0.000534 0.000500 0.001830 -0.002957 0.003219 0.005752 -0.001802 -0.004311 0.000000 65257.000000
 -0.000533 0.000502 0.001833 -0.002957 0.003218 0.005744 -0.001804 -0.004309 0.000000 65258.000000
 -0.000530 0.000504 0.001836 -0.002957 0.003225 0.005755 -0.001801 -0.004307 0.000000 65259.000000
 -0.000530 0.000505 0.001839 -0.002956 0.003229 0.005752 -0.001800 -0.004306 0.000000 65260.000000
 -0.000530 0.000508 0.001841 -0.002953 0.003209 0.005748 -0.001798 -0.004306 0.000000 65261.000000
 -0.000534 0.000507 0.001834 -0.002959 0.003208 0.005750 -0.001802 -0.004308 0.000000 65262.000000
 -0.000535 0.000504 0.001831 -0.002956 0.003213 0.005754 -0.001803 -0.004309 0.000000 65263.000000
 -0.000538 0.000503 0.001830 -0.002954 0.003214 0.005754 -0.001802 -0.004309 0.000000 65264.000000
 -0.000536 0.000504 0.001831 -0.002955 0.003213 0.005752 -0.001802 -0.004309 0.000000 65265.000000
 -0.000535 0.000504 0.001832 -0.002955 0.003214 0.005752 -0.001804 -0.004308 0.000000 65266.000000
 -0.000535 0.000500 0.001832 -0.002958 0.003208 0.005741 -0.001808 -0.004308 0.000000 65267.000000
 -0.000533 0.000502 0.001834 -0.002956 0.003204 0.005748 -0.001806 -0.004307 0.000000 65268.000000
 -0.000532 0.000507 0.001841 -0.002955 0.003207 0.005767 -0.001806 -0.004308 0.000000 65269.000000
 -0.000530 0.000514 0.001849 -0.002954 0.003211 0.005767 -0.001804 -0.004305 0.000000 65270.000000
 -0.000528 0.000514 0.001843 -0.002953 0.003205 0.005770 -0.001798 -0.004305 0.000000 65271.000000
 -0.000532 0.000507 0.001837 -0.002953 0.003202 0.005783 -0.001801 -0.004305 0.000000 65272.000000
 -0.000533 0.000506 0.001837 -0.002951 0.003201 0.005754 -0.001800 -0.004304 0.000000 65273.000000
 -0.000536 0.000504 0.001830 -0.002956 0.003237 0.005750 -0.001800 -0.004303 0.000000 65274.000000
 -0.000538 0.000500 0.001825 -0.002957 0.003233 0.005753 -0.001805 -0.004304 0.000000 65275.000000
 -0.000538 0.000502 0.001824 -0.002957 0.003224 0.005747 -0.001806 -0.004306 0.000000 65276.000000
 -0.000536 0.000502 0.001826 -0.002959 0.003220 0.005743 -0.001807 -0.004310 0.000000 65277.000000
 -0.000536 0.000501 0.001827 -0.002958 0.003217 0.005746 -0.001806 -0.004310 0.000000 65278.000000
 -0.000534 0.000503 0.001833 -0.002955 0.003220 0.005754 -0.001805 -0.004306 0.000000 65279.000000
 -0.000533 0.000506 0.001835 -0.002949 0.003224 0.005758 -0.001802 -0.004304 0.000000 65280.000000
 -0.000535 0.000507 0.001833 -0.002950 0.003222 0.005757 -0.001802 -0.004306 0.000000 65281.000000
 -0.000535 0.000506 0.001833 -0.002954 0.003221 0.005755 -0.001804 -0.004309 0.000000 65282.000000
 -0.000535 0.000507 0.001834 -0.002955 0.003218 0.005752 -0.001806 -0.004308 0.000000 65283.000000
 -0.000535 0.000506 0.001833 -0.002955 0.003218 0.005752 -0.001807 -0.004308 0.000000 65284.000000
 -0.000535 0.000506 0.001833 -0.002956 0.003217 0.005749 -0.001806 -0.004308 0.000000 65285.000000
 -0.000535 0.000505 0.001832 -0.002956 0.003215 0.005749 -0.001807 -0.004305 0.000000 65286.000000
 -0.000535 0.000505 0.001831 -0.002957 0.003213 0.005749 -0.001808 -0.004307 0.000000 65287.000000
 -0.000533 0.000504 0.001834 -0.002957 0.003212 0.005756 -0.001809 -0.004307 0.000000 65288.000000
 -0.000532 0.000504 0.001836 -0.002955 0.003214 0.005755 -0.001806 -0.004304 0.000000 65289.000000
 -0.000533 0.000507 0.001838 -0.002952 0.003216 0.005749 -0.001803 -0.004301 0.000000 65290.000000
 -0.000533 0.000508 0.001839 -0.002953 0.003219 0.005752 -0.001802 -0.004300 0.000000 65291.000000
 -0.000535 0.000507 0.001838 -0.002953 0.003226 0.005750 -0.001802 -0.004303 0.000000 65292.000000
 -0.000533 0.000509 0.001840 -0.002953 0.003236 0.005743 -0.001805 -0.004303 0.000000 65293.000000
 -0.000534 0.000510 0.001841 -0.002956 0.003230 0.005740 -0.001808 -0.004306 0.000000 65294.000000
 -0.000532 0.000513 0.001846 -0.002957 0.003228 0.005749 -0.001806 -0.004306 0.000000 65295.000000
 -0.000533 0.000514 0.001850 -0.002956 0.003210 0.005771 -0.001801 -0.004304 0.000000 65296.000000
 -0.000538 0.000508 0.001843 -0.002958 0.003202 0.005755 -0.001809 -0.004306 0.000000 65297.000000
 -0.000537 0.000508 0.001842 -0.002953 0.003203 0.005772 -0.001799 -0.004306 0.000000 65298.000000
 -0.000536 0.000507 0.001834 -0.002952 0.003206 0.005789 -0.001793 -0.004304 0.000000 65299.000000
 -0.000537 0.000504 0.001826 -0.002961 0.003208 0.005744 -0.001808 -0.004302 0.000000 65300.000000
 -0.000535 0.000505 0.001828 -0.002960 0.003211 0.005748 -0.001807 -0.004302 0.000000 65301.000000
 -0.000534 0.000506 0.001832 -0.002956 0.003213 0.005752 -0.001805 -0.004304 0.000000 65302.000000
 -0.000535 0.000506 0.001833 -0.002959 0.003213 0.005753 -0.001808 -0.004305 0.000000 65303.000000
 -0.000537 0.000505 0.001830 -0.002958 0.003206 0.005753 -0.001810 -0.004305 0.000000 65304.000000
 -0.000538 0.000505 0.001829 -0.002957 0.003205 0.005751 -0.001810 -0.004305 0.000000 65305.000000
 -0.000538 0.000504 0.001829 -0.002959 0.003206 0.005752 -0.001810 -0.004306 0.000000 65306.000000
 -0.000540 0.000500 0.001826 -0.002962 0.003202 0.005746 -0.001812 -0.004308 0.000000 65307.000000
 -0.000538 0.000501 0.001828 -0.002961 0.003203 0.005750 -0.001812 -0.004304 0.000000 65308.000000
 -0.000534 0.000505 0.001833 -0.002957 0.003207 0.005758 -0.001807 -0.004302 0.000000 65309.000000
 -0.000531 0.000507 0.001834 -0.002956 0.003212 0.005756 -0.001804 -0.004299 0.000000 65310.000000
 -0.000531 0.000509 0.001833 -0.002956 0.003214 0.005753 -0.001806 -0.004301 0.000000 65311.000000
 -0.000535 0.000508 0.001833 -0.002957 0.003213 0.005754 -0.001806 -0.004301 0.000000 65312.000000
 -0.000538 0.000508 0.001835 -0.002958 0.003201 0.005755 -0.001810 -0.004301 0.000000 65313.000000
 -0.000537 0.000509 0.001835 -0.002960 0.003185 0.005758 -0.001814 -0.004301 0.000000 65314.000000
 -0.000536 0.000509 0.001838 -0.002959 0.003198 0.005755 -0.001810 -0.004303 0.000000 65315.000000
 -0.000535 0.000509 0.001837 -0.002957 0.003222 0.005751 -0.001804 -0.004302 0.000000 65316.000000
 -0.000538 0.000505 0.001831 -0.002960 0.003223 0.005751 -0.001806 -0.004302 0.000000 65317.000000
 -0.000539 0.000505 0.001832 -0.002961 0.003216 0.005742 -0.001810 -0.004300 0.000000 65318.000000
 -0.000536 0.000508 0.001837 -0.002958 0.003216 0.005750 -0.001811 -0.004296 0.000000 65319.000000
 -0.000534 0.000511 0.001840 -0.002956 0.003211 0.005752 -0.001807 -0.004296 0.000000 65320.000000
 -0.000532 0.000513 0.001842 -0.002957 0.003215 0.005755 -0.001807 -0.004294 0.000000 65321.000000
 -0.000536 0.000515 0.001841 -0.002960 0.003218 0.005753 -0.001811 -0.004298 0.000000 65322.000000
 -0.000535 0.000516 0.001842 -0.002957 0.003216 0.005752 -0.001809 -0.004297 0.000000 65323.000000
 -0.000538 0.000511 0.001838 -0.002956 0.003194 0.005754 -0.001805 -0.004294 0.000000 65324.000000
 -0.000540 0.000504 0.001826 -0.002962 0.003205 0.005752 -0.001805 -0.004294 0.000000 65325.000000
 -0.000540 0.000502 0.001825 -0.002965 0.003221 0.005748 -0.001811 -0.004294 0.000000 65326.000000
 -0.000540 0.000504 0.001827 -0.002964 0.003214 0.005746 -0.001814 -0.004297 0.000000 65327.000000
 -0.000535 0.000504 0.001830 -0.002964 0.003205 0.005745 -0.001814 -0.004297 0.000000 65328.000000
 -0.000533 0.000509 0.001834 -0.002966 0.003193 0.005749 -0.001815 -0.004293 0.000000 65329.000000
 -0.000533 0.000514 0.001838 -0.002963 0.003196 0.005750 -0.001812 -0.004291 0.000000 65330.000000
 -0.000534 0.000515 0.001838 -0.002960 0.003213 0.005756 -0.001804 -0.004292 0.000000 65331.000000
 -0.000535 0.000515 0.001839 -0.002960 0.003220 0.005763 -0.001806 -0.004293 0.000000 65332.000000
 -0.000537 0.000514 0.001837 -0.002961 0.003218 0.005756 -0.001808 -0.004294 0.000000 65333.000000
 -0.000536 0.000513 0.001833 -0.002963 0.003218 0.005756 -0.001807 -0.004294 0.000000 65334.000000
 -0.000528 0.000511 0.001834 -0.002966 0.003215 0.005748 -0.001812 -0.004296 0.000000 65335.000000
 -0.000529 0.000514 0.001838 -0.002965 0.003222 0.005740 -0.001813 -0.004300 0.000000 65336.000000
 -0.000537 0.000513 0.001838 -0.002968 0.003209 0.005725 -0.001817 -0.004306 0.000000 65337.000000
 -0.000541 0.000510 0.001839 -0.002967 0.003199 0.005735 -0.001817 -0.004307 0.000000 65338.000000
 -0.000538 0.000513 0.001839 -0.002962 0.003197 0.005773 -0.001808 -0.004302 0.000000 65339.000000
 -0.000533 0.000512 0.001830 -0.002964 0.003209 0.005770 -0.001807 -0.004297 0.000000 65340.000000
 -0.000536 0.000510 0.001829 -0.002966 0.003221 0.005756 -0.001812 -0.004297 0.000000 65341.000000
 -0.000540 0.000511 0.001833 -0.002966 0.003219 0.005752 -0.001812 -0.004293 0.000000 65342.000000
 -0.000543 0.000511 0.001830 -0.002966 0.003217 0.005765 -0.001809 -0.004294 0.000000 65343.000000
 -0.000543 0.000510 0.001828 -0.002963 0.003213 0.005777 -0.001807 -0.004296 0.000000 65344.000000
 -0.000541 0.000509 0.001829 -0.002965 0.003208 0.005762 -0.001808 -0.004298 0.000000 65345.000000
 -0.000540 0.000508 0.001828 -0.002967 0.003199 0.005760 -0.001813 -0.004298 0.000000 65346.000000
 -0.000541 0.000506 0.001823 -0.002968 0.003188 0.005756 -0.001815 -0.004299 0.000000 65347.000000
 -0.000539 0.000505 0.001824 -0.002969 0.003201 0.005761 -0.001815 -0.004297 0.000000 65348.000000
 -0.000537 0.000509 0.001828 -0.002966 0.003201 0.005755 -0.001814 -0.004295 0.000000 65349.000000
 -0.000534 0.000512 0.001831 -0.002962 0.003204 0.005759 -0.001810 -0.004293 0.000000 65350.000000
 -0.000531 0.000514 0.001835 -0.002961 0.003206 0.005760 -0.001807 -0.004295 0.000000 65351.000000
 -0.000533 0.000515 0.001836 -0.002964 0.003207 0.005752 -0.001808 -0.004297 0.000000 65352.000000
 -0.000533 0.000517 0.001832 -0.002967 0.003212 0.005755 -0.001811 -0.004299 0.000000 65353.000000
 -0.000535 0.000517 0.001831 -0.002968 0.003207 0.005760 -0.001812 -0.004302 0.000000 65354.000000
 -0.000537 0.000514 0.001829 -0.002969 0.003204 0.005762 -0.001813 -0.004304 0.000000 65355.000000
 -0.000538 0.000510 0.001830 -0.002970 0.003205 0.005755 -0.001817 -0.004304 0.000000 65356.000000
 -0.000540 0.000507 0.001827 -0.002972 0.003202 0.005749 -0.001820 -0.004309 0.000000 65357.000000
 -0.000540 0.000507 0.001829 -0.002973 0.003202 0.005752 -0.001818 -0.004310 0.000000 65358.000000
 -0.000537 0.000513 0.001832 -0.002970 0.003204 0.005753 -0.001817 -0.004304 0.000000 65359.000000
 -0.000534 0.000514 0.001833 -0.002967 0.003206 0.005755 -0.001816 -0.004301 0.000000 65360.000000
 -0.000532 0.000514 0.001837 -0.002967 0.003209 0.005758 -0.001813 -0.004302 0.000000 65361.000000
 -0.000528 0.000517 0.001838 -0.002966 0.003210 0.005758 -0.001812 -0.004302 0.000000 65362.000000
 -0.000524 0.000516 0.001839 -0.002967 0.003207 0.005757 -0.001812 -0.004301 0.000000 65363.000000
 -0.000529 0.000517 0.001838 -0.002969 0.003207 0.005755 -0.001812 -0.004303 0.000000 65364.000000
 -0.000535 0.000518 0.001837 -0.002969 0.003206 0.005754 -0.001814 -0.004306 0.000000 65365.000000
 -0.000520 0.000518 0.001837 -0.002969 0.003205 0.005756 -0.001816 -0.004308 0.000000 65366.000000
 -0.000511 0.000516 0.001835 -0.002972 0.003202 0.005757 -0.001819 -0.004308 0.000000 65367.000000
 -0.000522 0.000514 0.001837 -0.002971 0.003203 0.005758 -0.001815 -0.004307 0.000000 65368.000000
 -0.000540 0.000514 0.001836 -0.002968 0.003203 0.005770 -0.001807 -0.004303 0.000000 65369.000000
 -0.000541 0.000517 0.001835 -0.002967 0.003199 0.005749 -0.001810 -0.004300 0.000000 65370.000000
 -0.000525 0.000518 0.001836 -0.002967 0.003185 0.005744 -0.001817 -0.004303 0.000000 65371.000000
 -0.000518 0.000520 0.001837 -0.002966 0.003201 0.005747 -0.001815 -0.004303 0.000000 65372.000000
 -0.000526 0.000520 0.001836 -0.002970 0.003229 0.005757 -0.001814 -0.004301 0.000000 65373.000000
 -0.000534 0.000518 0.001836 -0.002973 0.003226 0.005741 -0.001819 -0.004302 0.000000 65374.000000
 -0.000538 0.000519 0.001835 -0.002971 0.003212 0.005744 -0.001821 -0.004303 0.000000 65375.000000
 -0.000543 0.000517 0.001831 -0.002972 0.003204 0.005759 -0.001821 -0.004305 0.000000 65376.000000
 -0.000546 0.000513 0.001831 -0.002974 0.003198 0.005754 -0.001820 -0.004310 0.000000 65377.000000
 -0.000544 0.000512 0.001831 -0.002973 0.003202 0.005752 -0.001819 -0.004310 0.000000 65378.000000
 -0.000543 0.000513 0.001831 -0.002971 0.003214 0.005751 -0.001814 -0.004305 0.000000 65379.000000
 -0.000546 0.000513 0.001829 -0.002970 0.003217 0.005753 -0.001816 -0.004305 0.000000 65380.000000
 -0.000544 0.000516 0.001832 -0.002967 0.003218 0.005759 -0.001817 -0.004306 0.000000 65381.000000
 -0.000540 0.000517 0.001835 -0.002963 0.003225 0.005758 -0.001814 -0.004306 0.000000 65382.000000
 -0.000537 0.000520 0.001836 -0.002964 0.003222 0.005762 -0.001812 -0.004310 0.000000 65383.000000
 -0.000537 0.000519 0.001836 -0.002968 0.003198 0.005756 -0.001817 -0.004310 0.000000 65384.000000
 -0.000538 0.000515 0.001831 -0.002971 0.003196 0.005753 -0.001817 -0.004311 0.000000 65385.000000
 -0.000539 0.000512 0.001832 -0.002971 0.003201 0.005751 -0.001821 -0.004309 0.000000 65386.000000
 -0.000539 0.000513 0.001833 -0.002971 0.003202 0.005738 -0.001816 -0.004309 0.000000 65387.000000
 -0.000540 0.000514 0.001833 -0.002975 0.003197 0.005723 -0.001819 -0.004307 0.000000 65388.000000
 -0.000535 0.000514 0.001833 -0.002973 0.003205 0.005736 -0.001820 -0.004302 0.000000 65389.000000
 -0.000534 0.000515 0.001834 -0.002969 0.003219 0.005775 -0.001819 -0.004295 0.000000 65390.000000
 -0.000537 0.000517 0.001835 -0.002968 0.003218 0.005777 -0.001820 -0.004290 0.000000 65391.000000
 -0.000532 0.000518 0.001833 -0.002969 0.003217 0.005774 -0.001816 -0.004286 0.000000 65392.000000
 -0.000523 0.000515 0.001828 -0.002970 0.003217 0.005758 -0.001819 -0.004277 0.000000 65393.000000
 -0.000532 0.000513 0.001825 -0.002972 0.003206 0.005755 -0.001818 -0.004265 0.000000 65394.000000
 -0.000545 0.000510 0.001824 -0.002974 0.003206 0.005752 -0.001818 -0.004255 0.000000 65395.000000
 -0.000545 0.000514 0.001827 -0.002974 0.003201 0.005752 -0.001818 -0.004253 0.000000 65396.000000
 -0.000542 0.000508 0.001823 -0.002976 0.003198 0.005748 -0.001822 -0.004258 0.000000 65397.000000
 -0.000542 0.000511 0.001825 -0.002974 0.003202 0.005750 -0.001823 -0.004259 0.000000 65398.000000
 -0.000546 0.000514 0.001829 -0.002975 0.003206 0.005755 -0.001820 -0.004258 0.000000 65399.000000
 -0.000529 0.000516 0.001831 -0.002975 0.003210 0.005759 -0.001816 -0.004257 0.000000 65400.000000
 -0.000506 0.000517 0.001833 -0.002972 0.003206 0.005764 -0.001817 -0.004261 0.000000 65401.000000
 -0.000520 0.000520 0.001835 -0.002971 0.003193 0.005759 -0.001819 -0.004263 0.000000 65402.000000
 -0.000541 0.000517 0.001829 -0.002973 0.003191 0.005753 -0.001820 -0.004267 0.000000 65403.000000
 -0.000553 0.000516 0.001827 -0.002975 0.003214 0.005750 -0.001822 -0.004274 0.000000 65404.000000
 -0.000559 0.000517 0.001829 -0.002979 0.003211 0.005756 -0.001824 -0.004276 0.000000 65405.000000
 -0.000558 0.000511 0.001827 -0.002979 0.003205 0.005767 -0.001824 -0.004276 0.000000 65406.000000
 -0.000552 0.000505 0.001822 -0.002984 0.003201 0.005748 -0.001828 -0.004287 0.000000 65407.000000
 -0.000544 0.000505 0.001821 -0.002982 0.003204 0.005743 -0.001830 -0.004297 0.000000 65408.000000
 -0.000542 0.000509 0.001824 -0.002979 0.003204 0.005752 -0.001825 -0.004307 0.000000 65409.000000
 -0.000545 0.000515 0.001828 -0.002976 0.003208 0.005762 -0.001820 -0.004318 0.000000 65410.000000
 -0.000550 0.000515 0.001827 -0.002978 0.003207 0.005761 -0.001820 -0.004337 0.000000 65411.000000
 -0.000551 0.000515 0.001826 -0.002981 0.003207 0.005760 -0.001822 -0.004354 0.000000 65412.000000
 -0.000546 0.000515 0.001827 -0.002979 0.003206 0.005758 -0.001825 -0.004367 0.000000 65413.000000
 -0.000542 0.000513 0.001829 -0.002978 0.003208 0.005756 -0.001825 -0.004371 0.000000 65414.000000
 -0.000541 0.000512 0.001831 -0.002976 0.003208 0.005756 -0.001825 -0.004373 0.000000 65415.000000
 -0.000538 0.000516 0.001835 -0.002975 0.003194 0.005776 -0.001827 -0.004377 0.000000 65416.000000
 -0.000535 0.000516 0.001833 -0.002977 0.003183 0.005791 -0.001820 -0.004376 0.000000 65417.000000
 -0.000535 0.000518 0.001831 -0.002980 0.003182 0.005765 -0.001822 -0.004366 0.000000 65418.000000
 -0.000545 0.000520 0.001831 -0.002980 0.003207 0.005745 -0.001826 -0.004356 0.000000 65419.000000
 -0.000553 0.000520 0.001827 -0.002981 0.003213 0.005749 -0.001830 -0.004344 0.000000 65420.000000
 -0.000546 0.000519 0.001827 -0.002978 0.003212 0.005757 -0.001828 -0.004338 0.000000 65421.000000
 -0.000531 0.000520 0.001827 -0.002978 0.003210 0.005756 -0.001825 -0.004339 0.000000 65422.000000
 -0.000518 0.000520 0.001828 -0.002980 0.003209 0.005759 -0.001825 -0.004337 0.000000 65423.000000
 -0.000504 0.000518 0.001828 -0.002977 0.003213 0.005758 -0.001826 -0.004335 0.000000 65424.000000
 -0.000512 0.000518 0.001827 -0.002976 0.003212 0.005759 -0.001828 -0.004328 0.000000 65425.000000
 -0.000504 0.000520 0.001828 -0.002979 0.003211 0.005757 -0.001827 -0.004322 0.000000 65426.000000
 -0.000544 0.000516 0.001825 -0.002983 0.003205 0.005751 -0.001829 -0.004313 0.000000 65427.000000
 -0.000578 0.000515 0.001827 -0.002981 0.003201 0.005748 -0.001828 -0.004307 0.000000 65428.000000
 -0.000546 0.000518 0.001827 -0.002976 0.003206 0.005752 -0.001825 -0.004302 0.000000 65429.000000
 -0.000507 0.000521 0.001829 -0.002973 0.003209 0.005760 -0.001824 -0.004301 0.000000 65430.000000
 -0.000505 0.000523 0.001832 -0.002973 0.003209 0.005763 -0.001823 -0.004298 0.000000 65431.000000
 -0.000524 0.000521 0.001831 -0.002975 0.003208 0.005761 -0.001824 -0.004295 0.000000 65432.000000
 -0.000497 0.000523 0.001833 -0.002977 0.003208 0.005761 -0.001825 -0.004294 0.000000 65433.000000
 -0.000459 0.000528 0.001835 -0.002978 0.003210 0.005763 -0.001823 -0.004294 0.000000 65434.000000
 -0.000500 0.000525 0.001831 -0.002976 0.003215 0.005762 -0.001824 -0.004289 0.000000 65435.000000
 -0.000573 0.000517 0.001827 -0.002978 0.003216 0.005760 -0.001827 -0.004282 0.000000 65436.000000
 -0.000593 0.000508 0.001822 -0.002982 0.003208 0.005757 -0.001832 -0.004283 0.000000 65437.000000
 -0.000550 0.000509 0.001825 -0.002980 0.003195 0.005761 -0.001835 -0.004289 0.000000 65438.000000
 -0.000551 0.000514 0.001827 -0.002975 0.003196 0.005771 -0.001829 -0.004287 0.000000 65439.000000
 -0.000561 0.000520 0.001829 -0.002975 0.003194 0.005762 -0.001828 -0.004291 0.000000 65440.000000
 -0.000548 0.000521 0.001831 -0.002976 0.003178 0.005748 -0.001832 -0.004299 0.000000 65441.000000
 -0.000526 0.000521 0.001831 -0.002978 0.003190 0.005744 -0.001838 -0.004307 0.000000 65442.000000
 -0.000527 0.000525 0.001834 -0.002975 0.003230 0.005790 -0.001829 -0.004311 0.000000 65443.000000
 -0.000540 0.000521 0.001829 -0.002973 0.003246 0.005809 -0.001815 -0.004311 0.000000 65444.000000
 -0.000552 0.000518 0.001825 -0.002980 0.003219 0.005771 -0.001825 -0.004311 0.000000 65445.000000
 -0.000549 0.000516 0.001820 -0.002982 0.003204 0.005770 -0.001831 -0.004310 0.000000 65446.000000
 -0.000544 0.000514 0.001818 -0.002985 0.003203 0.005763 -0.001833 -0.004312 0.000000 65447.000000
 -0.000536 0.000514 0.001820 -0.002985 0.003203 0.005762 -0.001835 -0.004310 0.000000 65448.000000
 -0.000534 0.000517 0.001822 -0.002985 0.003208 0.005766 -0.001833 -0.004308 0.000000 65449.000000
 -0.000530 0.000519 0.001824 -0.002980 0.003214 0.005769 -0.001831 -0.004305 0.000000 65450.000000
 -0.000530 0.000521 0.001826 -0.002979 0.003215 0.005772 -0.001829 -0.004307 0.000000 65451.000000
 -0.000531 0.000519 0.001826 -0.002979 0.003212 0.005771 -0.001829 -0.004306 0.000000 65452.000000
 -0.000530 0.000519 0.001825 -0.002979 0.003209 0.005770 -0.001829 -0.004303 0.000000 65453.000000
 -0.000533 0.000520 0.001825 -0.002982 0.003209 0.005770 -0.001832 -0.004297 0.000000 65454.000000
 -0.000540 0.000518 0.001826 -0.002984 0.003213 0.005771 -0.001833 -0.004295 0.000000 65455.000000
 -0.000537 0.000518 0.001824 -0.002983 0.003211 0.005771 -0.001834 -0.004296 0.000000 65456.000000
 -0.000535 0.000516 0.001824 -0.002986 0.003208 0.005768 -0.001837 -0.004301 0.000000 65457.000000
 -0.000537 0.000519 0.001827 -0.002984 0.003205 0.005765 -0.001836 -0.004303 0.000000 65458.000000
 -0.000541 0.000521 0.001826 -0.002984 0.003201 0.005766 -0.001830 -0.004306 0.000000 65459.000000
 -0.000539 0.000523 0.001827 -0.002981 0.003206 0.005763 -0.001830 -0.004305 0.000000 65460.000000
 -0.000532 0.000525 0.001827 -0.002979 0.003211 0.005771 -0.001831 -0.004304 0.000000 65461.000000
 -0.000530 0.000522 0.001824 -0.002984 0.003210 0.005769 -0.001837 -0.004305 0.000000 65462.000000
 -0.000531 0.000521 0.001826 -0.002984 0.003213 0.005765 -0.001837 -0.004307 0.000000 65463.000000
 -0.000534 0.000523 0.001827 -0.002984 0.003203 0.005769 -0.001840 -0.004306 0.000000 65464.000000
 -0.000534 0.000524 0.001826 -0.002980 0.003178 0.005778 -0.001832 -0.004303 0.000000 65465.000000
 -0.000536 0.000520 0.001823 -0.002981 0.003153 0.005776 -0.001827 -0.004305 0.000000 65466.000000
 -0.000538 0.000516 0.001816 -0.002986 0.003199 0.005766 -0.001834 -0.004308 0.000000 65467.000000
 -0.000534 0.000519 0.001818 -0.002986 0.003228 0.005764 -0.001836 -0.004302 0.000000 65468.000000
 -0.000533 0.000523 0.001822 -0.002986 0.003219 0.005769 -0.001834 -0.004302 0.000000 65469.000000
 -0.000528 0.000522 0.001823 -0.002984 0.003219 0.005770 -0.001835 -0.004302 0.000000 65470.000000
 -0.000529 0.000521 0.001823 -0.002985 0.003212 0.005774 -0.001833 -0.004299 0.000000 65471.000000
 -0.000531 0.000523 0.001824 -0.002985 0.003211 0.005773 -0.001831 -0.004296 0.000000 65472.000000
 -0.000528 0.000525 0.001826 -0.002984 0.003210 0.005766 -0.001829 -0.004298 0.000000 65473.000000
 -0.000528 0.000525 0.001829 -0.002984 0.003201 0.005759 -0.001828 -0.004301 0.000000 65474.000000
 -0.000527 0.000526 0.001830 -0.002984 0.003198 0.005755 -0.001833 -0.004302 0.000000 65475.000000
 -0.000525 0.000528 0.001837 -0.002983 0.003205 0.005784 -0.001835 -0.004299 0.000000 65476.000000
 -0.000523 0.000522 0.001830 -0.002988 0.003230 0.005831 -0.001835 -0.004302 0.000000 65477.000000
 -0.000522 0.000517 0.001821 -0.002995 0.003223 0.005793 -0.001843 -0.004300 0.000000 65478.000000
 -0.000520 0.000521 0.001822 -0.002991 0.003210 0.005777 -0.001837 -0.004294 0.000000 65479.000000
 -0.000508 0.000518 0.001817 -0.002987 0.003212 0.005786 -0.001833 -0.004291 0.000000 65480.000000
 -0.000508 0.000517 0.001814 -0.002989 0.003203 0.005765 -0.001836 -0.004287 0.000000 65481.000000
 -0.000522 0.000518 0.001815 -0.002990 0.003204 0.005756 -0.001836 -0.004290 0.000000 65482.000000
 -0.000539 0.000519 0.001818 -0.002991 0.003204 0.005758 -0.001838 -0.004294 0.000000 65483.000000
 -0.000551 0.000520 0.001819 -0.002992 0.003204 0.005761 -0.001840 -0.004297 0.000000 65484.000000
 -0.000550 0.000520 0.001820 -0.002994 0.003203 0.005764 -0.001840 -0.004300 0.000000 65485.000000
 -0.000541 0.000521 0.001821 -0.002993 0.003202 0.005765 -0.001841 -0.004298 0.000000 65486.000000
 -0.000540 0.000518 0.001816 -0.002993 0.003200 0.005763 -0.001844 -0.004299 0.000000 65487.000000
 -0.000540 0.000519 0.001817 -0.002993 0.003201 0.005762 -0.001842 -0.004295 0.000000 65488.000000
 -0.000536 0.000521 0.001818 -0.002990 0.003202 0.005765 -0.001839 -0.004293 0.000000 65489.000000
 -0.000519 0.000522 0.001822 -0.002987 0.003206 0.005772 -0.001841 -0.004292 0.000000 65490.000000
 -0.000518 0.000525 0.001823 -0.002988 0.003207 0.005775 -0.001838 -0.004288 0.000000 65491.000000
 -0.000540 0.000525 0.001823 -0.002991 0.003207 0.005773 -0.001836 -0.004289 0.000000 65492.000000
 -0.000553 0.000522 0.001821 -0.002991 0.003203 0.005770 -0.001838 -0.004290 0.000000 65493.000000
 -0.000550 0.000519 0.001819 -0.002992 0.003202 0.005770 -0.001839 -0.004291 0.000000 65494.000000
 -0.000530 0.000520 0.001820 -0.002994 0.003202 0.005770 -0.001840 -0.004291 0.000000 65495.000000
 -0.000529 0.000523 0.001822 -0.002995 0.003202 0.005770 -0.001842 -0.004291 0.000000 65496.000000
 -0.000532 0.000524 0.001821 -0.002997 0.003198 0.005767 -0.001842 -0.004291 0.000000 65497.000000
 -0.000539 0.000524 0.001822 -0.002996 0.003197 0.005769 -0.001844 -0.004291 0.000000 65498.000000
 -0.000541 0.000521 0.001823 -0.002993 0.003200 0.005771 -0.001845 -0.004290 0.000000 65499.000000
 -0.000536 0.000519 0.001824 -0.002993 0.003199 0.005771 -0.001841 -0.004286 0.000000 65500.000000
 -0.000520 0.000520 0.001824 -0.002993 0.003190 0.005773 -0.001843 -0.004289 0.000000 65501.000000
 -0.000515 0.000524 0.001823 -0.002991 0.003178 0.005774 -0.001839 -0.004291 0.000000 65502.000000
 -0.000525 0.000526 0.001822 -0.002991 0.003201 0.005765 -0.001837 -0.004290 0.000000 65503.000000
 -0.000535 0.000524 0.001822 -0.002991 0.003230 0.005762 -0.001842 -0.004289 0.000000 65504.000000
 -0.000536 0.000522 0.001821 -0.002991 0.003228 0.005789 -0.001843 -0.004287 0.000000 65505.000000
 -0.000531 0.000522 0.001820 -0.002995 0.003205 0.005786 -0.001842 -0.004289 0.000000 65506.000000
 -0.000531 0.000524 0.001820 -0.002999 0.003198 0.005773 -0.001845 -0.004291 0.000000 65507.000000
 -0.000534 0.000527 0.001825 -0.002999 0.003210 0.005771 -0.001847 -0.004295 0.000000 65508.000000
 -0.000529 0.000528 0.001830 -0.002997 0.003202 0.005770 -0.001848 -0.004293 0.000000 65509.000000
 -0.000519 0.000528 0.001831 -0.002994 0.003181 0.005766 -0.001850 -0.004289 0.000000 65510.000000
 -0.000512 0.000527 0.001825 -0.002993 0.003181 0.005790 -0.001850 -0.004287 0.000000 65511.000000
 -0.000528 0.000524 0.001821 -0.002991 0.003218 0.005812 -0.001841 -0.004288 0.000000 65512.000000
 -0.000545 0.000524 0.001820 -0.002991 0.003235 0.005790 -0.001839 -0.004286 0.000000 65513.000000
 -0.000543 0.000523 0.001816 -0.002995 0.003224 0.005775 -0.001845 -0.004291 0.000000 65514.000000
 -0.000528 0.000521 0.001815 -0.002995 0.003203 0.005776 -0.001845 -0.004290 0.000000 65515.000000
 -0.000524 0.000519 0.001813 -0.002998 0.003196 0.005783 -0.001848 -0.004287 0.000000 65516.000000
 -0.000527 0.000517 0.001810 -0.002999 0.003191 0.005790 -0.001848 -0.004289 0.000000 65517.000000
 -0.000527 0.000518 0.001813 -0.003000 0.003191 0.005781 -0.001849 -0.004289 0.000000 65518.000000
 -0.000527 0.000521 0.001815 -0.003001 0.003197 0.005782 -0.001848 -0.004289 0.000000 65519.000000
 -0.000523 0.000525 0.001817 -0.003000 0.003203 0.005775 -0.001847 -0.004290 0.000000 65520.000000
 -0.000518 0.000526 0.001819 -0.002995 0.003201 0.005777 -0.001848 -0.004288 0.000000 65521.000000
 -0.000521 0.000527 0.001818 -0.002995 0.003203 0.005784 -0.001845 -0.004288 0.000000 65522.000000
 -0.000527 0.000524 0.001816 -0.002997 0.003207 0.005782 -0.001846 -0.004288 0.000000 65523.000000
 -0.000533 0.000521 0.001815 -0.002999 0.003206 0.005778 -0.001849 -0.004289 0.000000 65524.000000
 -0.000534 0.000520 0.001815 -0.003000 0.003203 0.005779 -0.001848 -0.004288 0.000000 65525.000000
 -0.000535 0.000520 0.001813 -0.003000 0.003203 0.005781 -0.001846 -0.004288 0.000000 65526.000000
 -0.000534 0.000519 0.001812 -0.003004 0.003199 0.005774 -0.001851 -0.004291 0.000000 65527.000000
 -0.000529 0.000521 0.001813 -0.003005 0.003199 0.005776 -0.001854 -0.004295 0.000000 65528.000000
 -0.000514 0.000523 0.001818 -0.003003 0.003202 0.005781 -0.001851 -0.004290 0.000000 65529.000000
 -0.000504 0.000525 0.001817 -0.003002 0.003204 0.005785 -0.001849 -0.004286 0.000000 65530.000000
 -0.000520 0.000525 0.001816 -0.002999 0.003206 0.005787 -0.001848 -0.004283 0.000000 65531.000000
 -0.000538 0.000525 0.001817 -0.002999 0.003208 0.005789 -0.001847 -0.004285 0.000000 65532.000000
 -0.000541 0.000521 0.001817 -0.003002 0.003204 0.005788 -0.001850 -0.004288 0.000000 65533.000000
 -0.000530 0.000523 0.001817 -0.003002 0.003202 0.005789 -0.001851 -0.004288 0.000000 65534.000000
 -0.000526 0.000522 0.001815 -0.003004 0.003203 0.005786 -0.001852 -0.004289 0.000000 65535.000000
 -0.000526 0.000521 0.001816 -0.003004 0.003204 0.005786 -0.001851 -0.004285 0.000000 65536.000000
 -0.000524 0.000518 0.001814 -0.003007 0.003199 0.005782 -0.001854 -0.004286 0.000000 65537.000000
 -0.000522 0.000518 0.001815 -0.003008 0.003198 0.005779 -0.001854 -0.004287 0.000000 65538.000000
 -0.000524 0.000521 0.001818 -0.003003 0.003205 0.005781 -0.001850 -0.004285 0.000000 65539.000000
 -0.000527 0.000524 0.001820 -0.003001 0.003207 0.005788 -0.001851 -0.004281 0.000000 65540.000000
 -0.000526 0.000524 0.001821 -0.003001 0.003212 0.005787 -0.001849 -0.004282 0.000000 65541.000000
 -0.000519 0.000524 0.001821 -0.003003 0.003220 0.005786 -0.001851 -0.004285 0.000000 65542.000000
 -0.000514 0.000525 0.001819 -0.003003 0.003214 0.005785 -0.001854 -0.004286 0.000000 65543.000000
 -0.000519 0.000525 0.001816 -0.003005 0.003194 0.005781 -0.001853 -0.004288 0.000000 65544.000000
 -0.000522 0.000526 0.001817 -0.003004 0.003166 0.005785 -0.001849 -0.004285 0.000000 65545.000000
 -0.000522 0.000524 0.001817 -0.003005 0.003169 0.005792 -0.001854 -0.004282 0.000000 65546.000000
 -0.000537 0.000521 0.001812 -0.003006 0.003190 0.005796 -0.001859 -0.004285 0.000000 65547.000000
 -0.000546 0.000524 0.001811 -0.003005 0.003220 0.005793 -0.001855 -0.004288 0.000000 65548.000000
 -0.000536 0.000529 0.001817 -0.003006 0.003220 0.005786 -0.001855 -0.004287 0.000000 65549.000000
 -0.000514 0.000528 0.001820 -0.003003 0.003195 0.005794 -0.001853 -0.004287 0.000000 65550.000000
 -0.000501 0.000528 0.001819 -0.003001 0.003184 0.005797 -0.001851 -0.004284 0.000000 65551.000000
 -0.000495 0.000528 0.001818 -0.003001 0.003205 0.005794 -0.001852 -0.004282 0.000000 65552.000000
 -0.000516 0.000526 0.001816 -0.003002 0.003227 0.005794 -0.001853 -0.004282 0.000000 65553.000000
 -0.000547 0.000523 0.001816 -0.003005 0.003221 0.005789 -0.001854 -0.004282 0.000000 65554.000000
 -0.000550 0.000522 0.001816 -0.003006 0.003214 0.005788 -0.001854 -0.004280 0.000000 65555.000000
 -0.000529 0.000519 0.001813 -0.003006 0.003211 0.005788 -0.001854 -0.004284 0.000000 65556.000000
 -0.000507 0.000518 0.001813 -0.003007 0.003209 0.005785 -0.001855 -0.004290 0.000000 65557.000000
 -0.000504 0.000523 0.001815 -0.003008 0.003210 0.005784 -0.001858 -0.004291 0.000000 65558.000000
 -0.000516 0.000524 0.001815 -0.003007 0.003213 0.005788 -0.001857 -0.004289 0.000000 65559.000000
 -0.000520 0.000526 0.001818 -0.003004 0.003212 0.005794 -0.001853 -0.004290 0.000000 65560.000000
 -0.000513 0.000528 0.001821 -0.003004 0.003199 0.005804 -0.001853 -0.004293 0.000000 65561.000000
 -0.000518 0.000528 0.001820 -0.003006 0.003188 0.005796 -0.001854 -0.004291 0.000000 65562.000000
 -0.000520 0.000528 0.001821 -0.003007 0.003202 0.005787 -0.001852 -0.004292 0.000000 65563.000000
 -0.000527 0.000526 0.001819 -0.003007 0.003227 0.005794 -0.001856 -0.004293 0.000000 65564.000000
 -0.000528 0.000526 0.001817 -0.003008 0.003225 0.005798 -0.001855 -0.004290 0.000000 65565.000000
 -0.000522 0.000523 0.001814 -0.003006 0.003211 0.005803 -0.001851 -0.004290 0.000000 65566.000000
 -0.000506 0.000522 0.001812 -0.003012 0.003214 0.005789 -0.001857 -0.004296 0.000000 65567.000000
 -0.000482 0.000522 0.001813 -0.003012 0.003212 0.005783 -0.001858 -0.004297 0.000000 65568.000000
 -0.000477 0.000523 0.001816 -0.003007 0.003216 0.005790 -0.001854 -0.004294 0.000000 65569.000000
 -0.000495 0.000528 0.001822 -0.003005 0.003219 0.005796 -0.001851 -0.004292 0.000000 65570.000000
 -0.000529 0.000527 0.001823 -0.003007 0.003218 0.005795 -0.001848 -0.004290 0.000000 65571.000000
 -0.000547 0.000528 0.001820 -0.003006 0.003220 0.005795 -0.001848 -0.004289 0.000000 65572.000000
 -0.000538 0.000525 0.001814 -0.003009 0.003218 0.005793 -0.001853 -0.004292 0.000000 65573.000000
 -0.000527 0.000527 0.001814 -0.003011 0.003214 0.005794 -0.001858 -0.004295 0.000000 65574.000000
 -0.000522 0.000526 0.001815 -0.003010 0.003213 0.005795 -0.001858 -0.004291 0.000000 65575.000000
 -0.000519 0.000525 0.001814 -0.003011 0.003215 0.005798 -0.001856 -0.004289 0.000000 65576.000000
 -0.000508 0.000522 0.001810 -0.003011 0.003212 0.005794 -0.001857 -0.004292 0.000000 65577.000000
 -0.000511 0.000521 0.001811 -0.003012 0.003211 0.005794 -0.001860 -0.004293 0.000000 65578.000000
 -0.000523 0.000525 0.001815 -0.003009 0.003213 0.005801 -0.001858 -0.004291 0.000000 65579.000000
 -0.000531 0.000527 0.001815 -0.003006 0.003217 0.005802 -0.001854 -0.004291 0.000000 65580.000000
 -0.000520 0.000529 0.001817 -0.003008 0.003216 0.005801 -0.001852 -0.004291 0.000000 65581.000000
 -0.000515 0.000530 0.001817 -0.003004 0.003218 0.005800 -0.001855 -0.004288 0.000000 65582.000000
 -0.000518 0.000528 0.001816 -0.003005 0.003215 0.005797 -0.001857 -0.004288 0.000000 65583.000000
 -0.000517 0.000523 0.001814 -0.003008 0.003214 0.005792 -0.001856 -0.004287 0.000000 65584.000000
 -0.000501 0.000521 0.001813 -0.003008 0.003213 0.005798 -0.001856 -0.004283 0.000000 65585.000000
 -0.000491 0.000522 0.001811 -0.003007 0.003214 0.005814 -0.001857 -0.004283 0.000000 65586.000000
 -0.000524 0.000521 0.001807 -0.003009 0.003211 0.005799 -0.001860 -0.004288 0.000000 65587.000000
 -0.000546 0.000521 0.001809 -0.003011 0.003211 0.005795 -0.001863 -0.004291 0.000000 65588.000000
 -0.000480 0.000525 0.001811 -0.003012 0.003210 0.005799 -0.001864 -0.004293 0.000000 65589.000000
 -0.000449 0.000532 0.001815 -0.003010 0.003212 0.005802 -0.001861 -0.004291 0.000000 65590.000000
 -0.000506 0.000532 0.001817 -0.003007 0.003214 0.005806 -0.001855 -0.004291 0.000000 65591.000000
 -0.000526 0.000533 0.001815 -0.003007 0.003217 0.005811 -0.001856 -0.004294 0.000000 65592.000000
 -0.000537 0.000528 0.001814 -0.003007 0.003212 0.005810 -0.001860 -0.004297 0.000000 65593.000000
 -0.000533 0.000526 0.001812 -0.003008 0.003211 0.005806 -0.001860 -0.004301 0.000000 65594.000000
 -0.000522 0.000527 0.001813 -0.003010 0.003211 0.005807 -0.001859 -0.004304 0.000000 65595.000000
 -0.000505 0.000526 0.001811 -0.003011 0.003214 0.005806 -0.001859 -0.004304 0.000000 65596.000000
 -0.000513 0.000524 0.001808 -0.003013 0.003221 0.005800 -0.001863 -0.004305 0.000000 65597.000000
 -0.000517 0.000524 0.001809 -0.003013 0.003218 0.005797 -0.001864 -0.004304 0.000000 65598.000000
 -0.000503 0.000526 0.001813 -0.003011 0.003215 0.005802 -0.001863 -0.004303 0.000000 65599.000000
 -0.000499 0.000529 0.001815 -0.003009 0.003211 0.005809 -0.001862 -0.004304 0.000000 65600.000000
 -0.000474 0.000533 0.001817 -0.003008 0.003211 0.005817 -0.001858 -0.004298 0.000000 65601.000000
 -0.000464 0.000533 0.001816 -0.003007 0.003208 0.005811 -0.001858 -0.004294 0.000000 65602.000000
 -0.000506 0.000531 0.001815 -0.003006 0.003189 0.005808 -0.001859 -0.004290 0.000000 65603.000000
 -0.000538 0.000529 0.001816 -0.003005 0.003197 0.005805 -0.001860 -0.004287 0.000000 65604.000000
 -0.000551 0.000528 0.001818 -0.003006 0.003234 0.005806 -0.001862 -0.004288 0.000000 65605.000000
 -0.000531 0.000527 0.001821 -0.003010 0.003220 0.005802 -0.001863 -0.004292 0.000000 65606.000000
 -0.000516 0.000525 0.001816 -0.003013 0.003176 0.005793 -0.001870 -0.004299 0.000000 65607.000000
 -0.000510 0.000525 0.001814 -0.003013 0.003203 0.005810 -0.001869 -0.004302 0.000000 65608.000000
 -0.000509 0.000529 0.001814 -0.003009 0.003254 0.005831 -0.001857 -0.004303 0.000000 65609.000000
 -0.000512 0.000528 0.001813 -0.003008 0.003240 0.005829 -0.001857 -0.004301 0.000000 65610.000000
 -0.000513 0.000525 0.001808 -0.003012 0.003212 0.005816 -0.001860 -0.004300 0.000000 65611.000000
 -0.000504 0.000529 0.001806 -0.003013 0.003212 0.005823 -0.001858 -0.004296 0.000000 65612.000000
 -0.000499 0.000529 0.001809 -0.003010 0.003205 0.005815 -0.001862 -0.004293 0.000000 65613.000000
 -0.000520 0.000526 0.001811 -0.003012 0.003198 0.005809 -0.001863 -0.004296 0.000000 65614.000000
 -0.000532 0.000526 0.001811 -0.003014 0.003205 0.005803 -0.001868 -0.004296 0.000000 65615.000000
 -0.000473 0.000527 0.001813 -0.003014 0.003230 0.005811 -0.001866 -0.004293 0.000000 65616.000000
 -0.000426 0.000525 0.001807 -0.003014 0.003225 0.005815 -0.001867 -0.004293 0.000000 65617.000000
 -0.000484 0.000524 0.001806 -0.003016 0.003226 0.005817 -0.001863 -0.004295 0.000000 65618.000000
 -0.000552 0.000523 0.001808 -0.003016 0.003224 0.005804 -0.001865 -0.004293 0.000000 65619.000000
 -0.000559 0.000526 0.001812 -0.003015 0.003224 0.005805 -0.001865 -0.004290 0.000000 65620.000000
 -0.000517 0.000528 0.001814 -0.003013 0.003226 0.005813 -0.001863 -0.004293 0.000000 65621.000000
 -0.000497 0.000527 0.001813 -0.003011 0.003225 0.005816 -0.001861 -0.004296 0.000000 65622.000000
 -0.000508 0.000527 0.001814 -0.003011 0.003224 0.005813 -0.001865 -0.004298 0.000000 65623.000000
 -0.000511 0.000526 0.001812 -0.003016 0.003223 0.005808 -0.001866 -0.004302 0.000000 65624.000000
 -0.000504 0.000529 0.001813 -0.003017 0.003220 0.005803 -0.001864 -0.004300 0.000000 65625.000000
 -0.000508 0.000529 0.001813 -0.003016 0.003217 0.005806 -0.001868 -0.004299 0.000000 65626.000000
 -0.000514 0.000526 0.001811 -0.003016 0.003213 0.005811 -0.001869 -0.004301 0.000000 65627.000000
 -0.000516 0.000526 0.001813 -0.003015 0.003209 0.005826 -0.001867 -0.004296 0.000000 65628.000000
 -0.000508 0.000530 0.001816 -0.003012 0.003217 0.005824 -0.001863 -0.004288 0.000000 65629.000000
 -0.000506 0.000530 0.001814 -0.003010 0.003218 0.005817 -0.001861 -0.004284 0.000000 65630.000000
 -0.000509 0.000526 0.001808 -0.003013 0.003215 0.005809 -0.001866 -0.004285 0.000000 65631.000000
 -0.000512 0.000527 0.001806 -0.003012 0.003223 0.005815 -0.001863 -0.004285 0.000000 65632.000000
 -0.000512 0.000530 0.001810 -0.003011 0.003235 0.005829 -0.001862 -0.004290 0.000000 65633.000000
 -0.000513 0.000531 0.001811 -0.003013 0.003227 0.005821 -0.001869 -0.004293 0.000000 65634.000000
 -0.000502 0.000529 0.001814 -0.003013 0.003218 0.005822 -0.001866 -0.004295 0.000000 65635.000000
 -0.000481 0.000531 0.001814 -0.003014 0.003192 0.005820 -0.001866 -0.004298 0.000000 65636.000000
 -0.000481 0.000528 0.001808 -0.003018 0.003184 0.005813 -0.001870 -0.004301 0.000000 65637.000000
 -0.000508 0.000525 0.001812 -0.003018 0.003215 0.005810 -0.001871 -0.004299 0.000000 65638.000000
 -0.000520 0.000529 0.001812 -0.003014 0.003227 0.005819 -0.001867 -0.004298 0.000000 65639.000000
 -0.000523 0.000535 0.001810 -0.003015 0.003220 0.005823 -0.001863 -0.004296 0.000000 65640.000000
 -0.000523 0.000535 0.001807 -0.003013 0.003223 0.005821 -0.001867 -0.004294 0.000000 65641.000000
 -0.000512 0.000533 0.001808 -0.003012 0.003227 0.005819 -0.001866 -0.004294 0.000000 65642.000000
 -0.000494 0.000532 0.001810 -0.003013 0.003228 0.005816 -0.001869 -0.004293 0.000000 65643.000000
 -0.000479 0.000530 0.001811 -0.003015 0.003226 0.005814 -0.001872 -0.004293 0.000000 65644.000000
 -0.000478 0.000530 0.001811 -0.003013 0.003215 0.005827 -0.001860 -0.004293 0.000000 65645.000000
 -0.000468 0.000526 0.001808 -0.003016 0.003190 0.005823 -0.001862 -0.004296 0.000000 65646.000000
 -0.000475 0.000523 0.001804 -0.003021 0.003181 0.005816 -0.001874 -0.004299 0.000000 65647.000000
 -0.000489 0.000523 0.001803 -0.003020 0.003205 0.005824 -0.001875 -0.004300 0.000000 65648.000000
 -0.000486 0.000532 0.001809 -0.003013 0.003230 0.005814 -0.001865 -0.004298 0.000000 65649.000000
 -0.000520 0.000539 0.001813 -0.003012 0.003226 0.005807 -0.001863 -0.004294 0.000000 65650.000000
 -0.000523 0.000539 0.001813 -0.003016 0.003241 0.005802 -0.001875 -0.004296 0.000000 65651.000000
 -0.000496 0.000541 0.001818 -0.003019 0.003244 0.005801 -0.001880 -0.004295 0.000000 65652.000000
 -0.000507 0.000540 0.001823 -0.003015 0.003233 0.005840 -0.001874 -0.004295 0.000000 65653.000000
 -0.000525 0.000538 0.001819 -0.003016 0.003225 0.005857 -0.001868 -0.004296 0.000000 65654.000000
 -0.000512 0.000534 0.001809 -0.003017 0.003240 0.005835 -0.001865 -0.004294 0.000000 65655.000000
 -0.000507 0.000529 0.001799 -0.003018 0.003222 0.005847 -0.001861 -0.004292 0.000000 65656.000000
 -0.000524 0.000519 0.001790 -0.003025 0.003210 0.005802 -0.001871 -0.004295 0.000000 65657.000000
 -0.000522 0.000518 0.001790 -0.003025 0.003213 0.005798 -0.001877 -0.004294 0.000000 65658.000000
 -0.000503 0.000525 0.001799 -0.003021 0.003217 0.005812 -0.001874 -0.004294 0.000000 65659.000000
 -0.000489 0.000529 0.001802 -0.003021 0.003218 0.005819 -0.001873 -0.004299 0.000000 65660.000000
 -0.000487 0.000528 0.001800 -0.003020 0.003219 0.005820 -0.001872 -0.004296 0.000000 65661.000000
 -0.000502 0.000527 0.001801 -0.003019 0.003221 0.005820 -0.001871 -0.004291 0.000000 65662.000000
 -0.000504 0.000528 0.001804 -0.003018 0.003217 0.005827 -0.001870 -0.004293 0.000000 65663.000000
 -0.000499 0.000533 0.001809 -0.003018 0.003220 0.005832 -0.001867 -0.004299 0.000000 65664.000000
 -0.000495 0.000534 0.001810 -0.003016 0.003214 0.005817 -0.001868 -0.004300 0.000000 65665.000000
 -0.000496 0.000530 0.001806 -0.003020 0.003217 0.005816 -0.001872 -0.004301 0.000000 65666.000000
 -0.000491 0.000528 0.001803 -0.003026 0.003214 0.005810 -0.001876 -0.004305 0.000000 65667.000000
 -0.000487 0.000526 0.001798 -0.003027 0.003202 0.005815 -0.001876 -0.004305 0.000000 65668.000000
 -0.000458 0.000530 0.001797 -0.003024 0.003208 0.005815 -0.001874 -0.004296 0.000000 65669.000000
 -0.000449 0.000531 0.001798 -0.003021 0.003213 0.005819 -0.001870 -0.004289 0.000000 65670.000000
 -0.000487 0.000531 0.001801 -0.003020 0.003218 0.005814 -0.001870 -0.004291 0.000000 65671.000000
 -0.000519 0.000533 0.001801 -0.003022 0.003220 0.005813 -0.001873 -0.004294 0.000000 65672.000000
 -0.000506 0.000532 0.001804 -0.003023 0.003216 0.005816 -0.001876 -0.004296 0.000000 65673.000000
 -0.000483 0.000532 0.001809 -0.003022 0.003214 0.005824 -0.001873 -0.004300 0.000000 65674.000000
 -0.000490 0.000535 0.001813 -0.003019 0.003204 0.005838 -0.001869 -0.004303 0.000000 65675.000000
 -0.000490 0.000535 0.001811 -0.003020 0.003207 0.005829 -0.001872 -0.004300 0.000000 65676.000000
 -0.000470 0.000529 0.001802 -0.003025 0.003202 0.005820 -0.001882 -0.004302 0.000000 65677.000000
 -0.000497 0.000528 0.001802 -0.003026 0.003200 0.005827 -0.001879 -0.004303 0.000000 65678.000000
 -0.000524 0.000530 0.001801 -0.003022 0.003220 0.005825 -0.001871 -0.004298 0.000000 65679.000000
 -0.000500 0.000532 0.001801 -0.003021 0.003200 0.005780 -0.001872 -0.004297 0.000000 65680.000000
 -0.000485 0.000532 0.001800 -0.003023 0.003206 0.005794 -0.001875 -0.004298 0.000000 65681.000000
 -0.000486 0.000534 0.001801 -0.003021 0.003247 0.005866 -0.001867 -0.004297 0.000000 65682.000000
 -0.000496 0.000533 0.001800 -0.003019 0.003245 0.005863 -0.001866 -0.004293 0.000000 65683.000000
 -0.000485 0.000525 0.001798 -0.003024 0.003233 0.005826 -0.001874 -0.004292 0.000000 65684.000000
 -0.000452 0.000522 0.001796 -0.003022 0.003233 0.005821 -0.001872 -0.004292 0.000000 65685.000000
 -0.000495 0.000521 0.001792 -0.003022 0.003227 0.005829 -0.001871 -0.004297 0.000000 65686.000000
 -0.000522 0.000523 0.001793 -0.003027 0.003226 0.005819 -0.001880 -0.004297 0.000000 65687.000000
 -0.000530 0.000531 0.001798 -0.003027 0.003233 0.005816 -0.001879 -0.004290 0.000000 65688.000000
 -0.000544 0.000533 0.001801 -0.003028 0.003232 0.005823 -0.001880 -0.004283 0.000000 65689.000000
 -0.000533 0.000533 0.001803 -0.003026 0.003225 0.005820 -0.001875 -0.004281 0.000000 65690.000000
 -0.000491 0.000535 0.001804 -0.003022 0.003219 0.005820 -0.001869 -0.004286 0.000000 65691.000000
